0.148125
0.141781
0.135490
0.129301
0.123194
0.117172
0.111237
0.105392
0.099639
0.093959
0.087032
0.081592
0.076252
0.070994
0.065859
0.060829
0.055903
0.051084
0.046372
0.041767
0.037255
0.032868
0.028591
0.024424
0.020366
0.016419
0.012581
0.008840
0.005222
0.001713
-0.001686
-0.004977
-0.008160
-0.011248
-0.014216
-0.017079
-0.019837
-0.022491
-0.025042
-0.028091
-0.030413
-0.032635
-0.034760
-0.036786
-0.038725
-0.040561
-0.042304
-0.043955
-0.045515
-0.046987
-0.048372
-0.049676
-0.050890
-0.052021
-0.053072
-0.054043
-0.054937
-0.055754
-0.056500
-0.057170
-0.057769
-0.058299
-0.058762
-0.059158
-0.059492
-0.059761
-0.059971
-0.060149
-0.060228
-0.060252
-0.060223
-0.060142
-0.060011
-0.059832
-0.059606
-0.059334
-0.059020
-0.058664
-0.058268
-0.057834
-0.057363
-0.056857
-0.056315
-0.055743
-0.055140
-0.054508
-0.053849
-0.053163
-0.052452
-0.051716
-0.050960
-0.050183
-0.049387
-0.048573
-0.047742
-0.046892
-0.045816
-0.044939
-0.044050
-0.043148
-0.042240
-0.041323
-0.040399
-0.039469
-0.038534
-0.037595
-0.036648
-0.035704
-0.034757
-0.033810
-0.032864
-0.031918
-0.030975
-0.030030
-0.029093
-0.028160
-0.027231
-0.026308
-0.025391
-0.024481
-0.023575
-0.022680
-0.021793
-0.020915
-0.020047
-0.019188
-0.018128
-0.017293
-0.016469
-0.015657
-0.014854
-0.014066
-0.013291
-0.012528
-0.011778
-0.011042
-0.010320
-0.009608
-0.008913
-0.008232
-0.007566
-0.006913
-0.006276
-0.005653
-0.005042
-0.004448
-0.003869
-0.003305
-0.002756
-0.002222
-0.001703
-0.001196
-0.000707
-0.000232
0.012459
0.042777
0.066096
0.088624
0.110366
0.131327
0.151514
0.171006
0.189661
0.207564
0.224723
0.241145
0.256840
0.271817
0.286138
0.299705
0.312583
0.324783
0.336316
0.347192
0.357423
0.367056
0.376028
0.384390
0.392153
0.399329
0.405932
0.411972
0.417482
0.423581
0.427880
0.431683
0.434976
0.437785
0.440124
0.442005
0.443441
0.444445
0.445031
0.445208
0.444990
0.444391
0.443423
0.442098
0.440430
0.438421
0.436100
0.433472
0.430548
0.427340
0.423860
0.420120
0.416116
0.411888
0.407435
0.402766
0.397892
0.392825
0.386224
0.380758
0.375133
0.369357
0.363418
0.357370
0.351201
0.344919
0.338534
0.332055
0.325490
0.318822
0.312111
0.305338
0.298512
0.291640
0.284730
0.277789
0.270798
0.263816
0.256823
0.249827
0.242833
0.235847
0.228875
0.221897
0.214970
0.208074
0.201213
0.194392
0.185918
0.179205
0.172547
0.165949
0.159413
0.152919
0.146520
0.140195
0.133947
0.127778
0.121692
0.115691
0.109756
0.103934
0.098205
0.092570
0.087032
0.081592
0.076252
0.070994
0.065859
0.060829
0.055903
0.051084
0.046372
0.041767
0.037255
0.032868
0.028591
0.023391
0.019362
0.015442
0.011632
0.007932
0.004341
0.000860
-0.002525
-0.005789
-0.008945
-0.011994
-0.014936
-0.017773
-0.020505
-0.023143
-0.025668
-0.028091
-0.030413
-0.032635
-0.034760
-0.036786
-0.038725
-0.040561
-0.042304
-0.043955
-0.045515
-0.046987
-0.048372
-0.049676
-0.051178
-0.052290
-0.053324
-0.054276
-0.055150
-0.055948
-0.056673
-0.057325
-0.057907
-0.058422
-0.058868
-0.059248
-0.059564
-0.059819
-0.060013
-0.060149
-0.060228
-0.060252
-0.060223
-0.060142
-0.060011
-0.059832
-0.059606
-0.059334
-0.059020
-0.058664
-0.058268
-0.057834
-0.057363
-0.056724
-0.056176
-0.055596
-0.054986
-0.054345
-0.053678
-0.052986
-0.052270
-0.051530
-0.050769
-0.049987
-0.049183
-0.048365
-0.047530
-0.046680
-0.045816
-0.044939
-0.044050
-0.043148
-0.042240
-0.041323
-0.040399
-0.039469
-0.038534
-0.037595
-0.036648
-0.035704
-0.034757
-0.033810
-0.032864
-0.031681
-0.030738
-0.029798
-0.028861
-0.027929
-0.026998
-0.026077
-0.025161
-0.024253
-0.023352
-0.022459
-0.021574
-0.020695
-0.019829
-0.018973
-0.018128
-0.017293
-0.016469
-0.015657
-0.014854
-0.014066
-0.013291
-0.012528
-0.011778
-0.011042
-0.010320
-0.009608
-0.008913
-0.008066
-0.007400
-0.006751
-0.006117
-0.005498
-0.004893
-0.004303
-0.003728
-0.003166
-0.002620
-0.002090
-0.001574
-0.001073
-0.000588
-0.000116
0.018660
0.042777
0.066096
0.088624
0.110366
0.131327
0.151514
0.171006
0.189661
0.207564
0.224723
0.241145
0.256840
0.271817
0.289569
0.302964
0.315673
0.327751
0.339117
0.349830
0.359900
0.369339
0.378159
0.386371
0.394015
0.401046
0.407506
0.413406
0.418761
0.423581
0.427880
0.431683
0.434976
0.437785
0.440124
0.442005
0.443441
0.444445
0.445031
0.445208
0.444990
0.444391
0.443423
0.441710
0.439957
0.437875
0.435476
0.432773
0.429766
0.426488
0.422942
0.419138
0.415089
0.410804
0.406296
0.401557
0.396633
0.391519
0.386224
0.380758
0.375133
0.369357
0.363418
0.357370
0.351201
0.344919
0.338534
0.332055
0.325490
0.318822
0.312111
0.305338
0.298512
0.289903
0.282984
0.276037
0.269067
0.262082
0.255088
0.248065
0.241072
0.234089
0.227122
0.220176
0.213256
0.206368
0.199491
0.192681
0.185918
0.179205
0.172547
0.165949
0.159413
0.152919
0.146520
0.140195
0.133947
0.127778
0.121692
0.115691
0.109756
0.103934
0.096798
0.091166
0.085652
0.080238
0.074923
0.069711
0.064601
0.059597
0.054679
0.049887
0.045202
0.040625
0.036156
0.031797
0.027547
0.023391
0.019362
0.015442
0.011632
0.007932
0.004341
0.000860
-0.002525
-0.005789
-0.008945
-0.011994
-0.014936
-0.017773
-0.021177
-0.023779
-0.026278
-0.028676
-0.030982
-0.033180
-0.035279
-0.037282
-0.039189
-0.041002
-0.042722
-0.044356
-0.045895
-0.047344
-0.048707
-0.049985
-0.051178
-0.052290
-0.053324
-0.054276
-0.055150
-0.055948
-0.056673
-0.057325
-0.057907
-0.058422
-0.058868
-0.059248
-0.059564
-0.059819
-0.060053
-0.060174
-0.060239
-0.060250
-0.060207
-0.060113
-0.059970
-0.059779
-0.059542
-0.059260
-0.058935
-0.058569
-0.058162
-0.057719
-0.057239
-0.056724
-0.056176
-0.055596
-0.054986
-0.054345
-0.053678
-0.052986
-0.052270
-0.051530
-0.050769
-0.049987
-0.049183
-0.048365
-0.047530
-0.046463
-0.045596
-0.044716
-0.043825
-0.042923
-0.042013
-0.041094
-0.040165
-0.039234
-0.038298
-0.037357
-0.036414
-0.035469
-0.034522
-0.033572
-0.032626
-0.031681
-0.030738
-0.029798
-0.028861
-0.027929
-0.026998
-0.026077
-0.025161
-0.024253
-0.023352
-0.022459
-0.021574
-0.020695
-0.019616
-0.018763
-0.017916
-0.017084
-0.016264
-0.015454
-0.014657
-0.013872
-0.013100
-0.012338
-0.011592
-0.010859
-0.010140
-0.009434
-0.008743
-0.008066
-0.007400
-0.006751
-0.006117
-0.005498
-0.004893
-0.004303
-0.003728
-0.003166
-0.002620
-0.002090
-0.001574
-0.001073
-0.000588
-0.000000
0.024718
0.048636
0.071759
0.094175
0.115720
0.136485
0.156478
0.175705
0.194173
0.211890
0.228929
0.245167
0.260680
0.275477
0.289569
0.302964
0.315673
0.327751
0.339117
0.349830
0.359900
0.369339
0.378159
0.386371
0.394015
0.401046
0.407506
0.413406
0.420025
0.424712
0.428882
0.432546
0.435717
0.438409
0.440640
0.442408
0.443734
0.444632
0.445112
0.445190
0.444876
0.444181
0.443122
0.441710
0.439957
0.437875
0.435476
0.432773
0.429766
0.426488
0.422942
0.419138
0.415089
0.410804
0.406296
0.401557
0.395382
0.390222
0.384863
0.379356
0.373692
0.367879
0.361929
0.355850
0.349652
0.343320
0.336911
0.330409
0.323824
0.317163
0.310436
0.303649
0.296785
0.289903
0.282984
0.276037
0.269067
0.262082
0.255088
0.248065
0.241072
0.234089
0.227122
0.220176
0.213256
0.206368
0.197797
0.190999
0.184248
0.177523
0.170879
0.164296
0.157777
0.151325
0.144944
0.138638
0.132385
0.126237
0.120172
0.114194
0.108304
0.102504
0.096798
0.091166
0.085652
0.080238
0.074923
0.069711
0.064601
0.059597
0.054679
0.049887
0.045202
0.040625
0.036156
0.030716
0.026494
0.022381
0.018379
0.014486
0.010689
0.007017
0.003454
-0.000000
-0.003345
-0.006582
-0.009712
-0.012745
-0.015661
-0.018471
-0.021177
-0.023779
-0.026278
-0.028676
-0.030982
-0.033180
-0.035279
-0.037282
-0.039189
-0.041002
-0.042722
-0.044356
-0.045895
-0.047344
-0.049037
-0.050293
-0.051466
-0.052557
-0.053568
-0.054500
-0.055355
-0.056138
-0.056844
-0.057479
-0.058043
-0.058539
-0.058968
-0.059332
-0.059634
-0.059873
-0.060053
-0.060174
-0.060239
-0.060250
-0.060207
-0.060113
-0.059970
-0.059779
-0.059542
-0.059260
-0.058935
-0.058569
-0.058162
-0.057603
-0.057114
-0.056589
-0.056033
-0.055445
-0.054828
-0.054182
-0.053509
-0.052811
-0.052086
-0.051340
-0.050574
-0.049787
-0.048982
-0.048159
-0.047320
-0.046463
-0.045596
-0.044716
-0.043825
-0.042923
-0.042013
-0.041094
-0.040165
-0.039234
-0.038298
-0.037357
-0.036414
-0.035469
-0.034284
-0.033337
-0.032391
-0.031446
-0.030500
-0.029561
-0.028626
-0.027695
-0.026769
-0.025849
-0.024935
-0.024025
-0.023126
-0.022235
-0.021353
-0.020480
-0.019616
-0.018763
-0.017916
-0.017084
-0.016264
-0.015454
-0.014657
-0.013872
-0.013100
-0.012338
-0.011592
-0.010859
-0.010140
-0.009259
-0.008571
-0.007897
-0.007238
-0.006593
-0.005962
-0.005344
-0.004743
-0.004157
-0.003586
-0.003029
-0.002487
-0.001961
-0.001447
-0.000950
-0.000467
-0.000000
0.024718
0.048636
0.071759
0.094175
0.115720
0.136485
0.156478
0.175705
0.194173
0.211890
0.228929
0.249083
0.264418
0.279093
0.293008
0.306229
0.318767
0.330632
0.341835
0.352388
0.362337
0.371619
0.380284
0.388345
0.395814
0.402702
0.409021
0.414806
0.420025
0.424712
0.428882
0.432546
0.435717
0.438409
0.440640
0.442408
0.443734
0.444632
0.445112
0.445190
0.444737
0.443952
0.442805
0.441306
0.439463
0.437300
0.434824
0.432046
0.428978
0.425633
0.422022
0.418141
0.414031
0.409689
0.405126
0.400354
0.395382
0.390222
0.384863
0.379356
0.373692
0.367879
0.361929
0.355850
0.349652
0.343320
0.336911
0.330409
0.323824
0.317163
0.308731
0.301931
0.295081
0.288189
0.281263
0.274283
0.267309
0.260321
0.253325
0.246329
0.239339
0.232359
0.225370
0.218430
0.211518
0.204638
0.197797
0.190999
0.184248
0.177523
0.170879
0.164296
0.157777
0.151325
0.144944
0.138638
0.132385
0.126237
0.120172
0.112701
0.106834
0.101058
0.095376
0.089789
0.084300
0.078910
0.073600
0.068414
0.063331
0.058353
0.053480
0.048714
0.044056
0.039489
0.035048
0.030716
0.026494
0.022381
0.018379
0.014486
0.010689
0.007017
0.003454
-0.000000
-0.003345
-0.006582
-0.009712
-0.012745
-0.016368
-0.019152
-0.021842
-0.024418
-0.026892
-0.029264
-0.031537
-0.033710
-0.035785
-0.037771
-0.039654
-0.041444
-0.043140
-0.044746
-0.046262
-0.047690
-0.049037
-0.050293
-0.051466
-0.052557
-0.053568
-0.054500
-0.055355
-0.056138
-0.056844
-0.057479
-0.058043
-0.058539
-0.058968
-0.059414
-0.059699
-0.059923
-0.060088
-0.060196
-0.060247
-0.060244
-0.060189
-0.060082
-0.059927
-0.059724
-0.059475
-0.059182
-0.058847
-0.058471
-0.058056
-0.057603
-0.057114
-0.056589
-0.056033
-0.055445
-0.054828
-0.054182
-0.053509
-0.052811
-0.052086
-0.051340
-0.050574
-0.049787
-0.048776
-0.047949
-0.047107
-0.046249
-0.045379
-0.044496
-0.043599
-0.042695
-0.041782
-0.040862
-0.039935
-0.039002
-0.038065
-0.037120
-0.036176
-0.035231
-0.034284
-0.033337
-0.032391
-0.031446
-0.030500
-0.029561
-0.028626
-0.027695
-0.026769
-0.025849
-0.024935
-0.024025
-0.023126
-0.022015
-0.021132
-0.020261
-0.019400
-0.018549
-0.017709
-0.016880
-0.016062
-0.015252
-0.014458
-0.013677
-0.012908
-0.012152
-0.011409
-0.010679
-0.009961
-0.009259
-0.008571
-0.007897
-0.007238
-0.006593
-0.005962
-0.005344
-0.004743
-0.004157
-0.003586
-0.003029
-0.002487
-0.001961
-0.001322
-0.000829
-0.000350
0.006302
0.030818
0.054536
0.077459
0.099593
0.120944
0.141517
0.161393
0.180428
0.198706
0.216236
0.233025
0.249083
0.264418
0.279093
0.293008
0.306229
0.318767
0.330632
0.341835
0.352388
0.362337
0.371619
0.380284
0.388345
0.397603
0.404347
0.410525
0.416151
0.421237
0.425795
0.429852
0.433391
0.436440
0.439012
0.441121
0.442778
0.443996
0.444791
0.445170
0.445147
0.444737
0.443952
0.442805
0.441306
0.439463
0.437300
0.434824
0.432046
0.428978
0.425633
0.422022
0.418141
0.414031
0.409689
0.403943
0.399120
0.394099
0.388893
0.383512
0.377965
0.372263
0.366393
0.360410
0.354300
0.348073
0.341739
0.335306
0.328783
0.322153
0.315475
0.308731
0.301931
0.295081
0.288189
0.281263
0.274283
0.267309
0.260321
0.253325
0.246329
0.239339
0.232359
0.223646
0.216712
0.209808
0.202911
0.196080
0.189293
0.182555
0.175869
0.169241
0.162673
0.156145
0.149711
0.143348
0.137061
0.130852
0.124725
0.118681
0.112701
0.106834
0.101058
0.095376
0.089789
0.084300
0.078910
0.073600
0.068414
0.063331
0.058353
0.053480
0.048714
0.042900
0.038377
0.033963
0.029658
0.025448
0.021363
0.017388
0.013523
0.009768
0.006123
0.002587
-0.000853
-0.004171
-0.007381
-0.010483
-0.013478
-0.016368
-0.019152
-0.021842
-0.024418
-0.026892
-0.029264
-0.031537
-0.033710
-0.035785
-0.037771
-0.039654
-0.041444
-0.043140
-0.045137
-0.046630
-0.048036
-0.049356
-0.050592
-0.051744
-0.052819
-0.053810
-0.054722
-0.055559
-0.056320
-0.057008
-0.057625
-0.058174
-0.058653
-0.059066
-0.059414
-0.059699
-0.059923
-0.060088
-0.060196
-0.060247
-0.060244
-0.060189
-0.060082
-0.059927
-0.059724
-0.059475
-0.059182
-0.058757
-0.058370
-0.057945
-0.057483
-0.056986
-0.056454
-0.055890
-0.055295
-0.054668
-0.054015
-0.053336
-0.052631
-0.051903
-0.051152
-0.050380
-0.049586
-0.048776
-0.047949
-0.047107
-0.046249
-0.045379
-0.044496
-0.043599
-0.042695
-0.041782
-0.040862
-0.039935
-0.039002
-0.038065
-0.036886
-0.035942
-0.034996
-0.034045
-0.033099
-0.032153
-0.031209
-0.030267
-0.029329
-0.028394
-0.027461
-0.026537
-0.025618
-0.024706
-0.023801
-0.022904
-0.022015
-0.021132
-0.020261
-0.019400
-0.018549
-0.017709
-0.016880
-0.016062
-0.015252
-0.014458
-0.013677
-0.012908
-0.012152
-0.011224
-0.010498
-0.009785
-0.009087
-0.008402
-0.007730
-0.007074
-0.006433
-0.005806
-0.005194
-0.004596
-0.004014
-0.003444
-0.002891
-0.002353
-0.001830
-0.001322
-0.000829
-0.000350
0.006302
0.030818
0.054536
0.077459
0.099593
0.120944
0.141517
0.161393
0.180428
0.198706
0.220535
0.237139
0.253014
0.268168
0.282611
0.296353
0.309403
0.321819
0.333516
0.344554
0.354944
0.364698
0.373826
0.382340
0.390282
0.397603
0.404347
0.410525
0.416151
0.421237
0.425795
0.429852
0.433391
0.436440
0.439012
0.441121
0.442778
0.443996
0.444791
0.445201
0.445081
0.444574
0.443697
0.442460
0.440875
0.438956
0.436714
0.434162
0.431300
0.428161
0.424748
0.421072
0.417143
0.412975
0.408577
0.403943
0.399120
0.394099
0.388893
0.383512
0.377965
0.372263
0.366393
0.360410
0.354300
0.348073
0.341739
0.335306
0.327126
0.320503
0.313807
0.307049
0.300210
0.293349
0.286447
0.279514
0.272554
0.265576
0.258586
0.251563
0.244568
0.237579
0.230603
0.223646
0.216712
0.209808
0.202911
0.196080
0.189293
0.182555
0.175869
0.169241
0.162673
0.156145
0.149711
0.143348
0.137061
0.130852
0.123194
0.117172
0.111237
0.105392
0.099639
0.093959
0.088397
0.082932
0.077568
0.072304
0.067143
0.062086
0.057115
0.052269
0.047531
0.042900
0.038377
0.033963
0.029658
0.025448
0.021363
0.017388
0.013523
0.009768
0.006123
0.002587
-0.000853
-0.004171
-0.007381
-0.011248
-0.014216
-0.017079
-0.019837
-0.022491
-0.025042
-0.027490
-0.029846
-0.032093
-0.034242
-0.036293
-0.038247
-0.040107
-0.041873
-0.043553
-0.045137
-0.046630
-0.048036
-0.049356
-0.050592
-0.051744
-0.052819
-0.053810
-0.054722
-0.055559
-0.056320
-0.057008
-0.057625
-0.058174
-0.058762
-0.059158
-0.059492
-0.059761
-0.059971
-0.060121
-0.060214
-0.060251
-0.060235
-0.060167
-0.060048
-0.059880
-0.059666
-0.059406
-0.059103
-0.058757
-0.058370
-0.057945
-0.057483
-0.056986
-0.056454
-0.055890
-0.055295
-0.054668
-0.054015
-0.053336
-0.052631
-0.051903
-0.051152
-0.050183
-0.049387
-0.048573
-0.047742
-0.046892
-0.046031
-0.045157
-0.044272
-0.043375
-0.042469
-0.041555
-0.040629
-0.039700
-0.038766
-0.037828
-0.036886
-0.035942
-0.034996
-0.034045
-0.033099
-0.032153
-0.031209
-0.030267
-0.029329
-0.028394
-0.027461
-0.026537
-0.025618
-0.024706
-0.023575
-0.022680
-0.021793
-0.020915
-0.020047
-0.019188
-0.018337
-0.017499
-0.016673
-0.015858
-0.015054
-0.014263
-0.013485
-0.012716
-0.011963
-0.011224
-0.010498
-0.009785
-0.009087
-0.008402
-0.007730
-0.007074
-0.006433
-0.005806
-0.005194
-0.004596
-0.004014
-0.003444
-0.002891
-0.002222
-0.001703
-0.001196
-0.000707
-0.000232
0.012459
0.036777
0.060297
0.083109
0.105045
0.126199
0.146578
0.166186
0.185033
0.203125
0.220535
0.237139
0.253014
0.268168
0.282611
0.296353
0.309403
0.321819
0.333516
0.344554
0.354944
0.364698
0.373826
0.382340
0.392153
0.399329
0.405932
0.411972
0.417482
0.422434
0.426861
0.430776
0.434193
0.437122
0.439587
0.441580
0.443126
0.444236
0.444923
0.445201
0.445081
0.444574
0.443697
0.442460
0.440875
0.438956
0.436714
0.434162
0.431300
0.428161
0.424748
0.421072
0.417143
0.411888
0.407435
0.402766
0.397892
0.392825
0.387574
0.382130
0.376543
0.370803
0.364921
0.358905
0.352766
0.346488
0.340128
0.333671
0.327126
0.320503
0.313807
0.307049
0.300210
0.293349
0.286447
0.279514
0.272554
0.265576
0.258586
0.251563
0.244568
0.237579
0.228875
0.221897
0.214970
0.208074
0.201213
0.194392
0.187617
0.180891
0.174194
0.167580
0.161028
0.154542
0.148125
0.141781
0.135490
0.129301
0.123194
0.117172
0.111237
0.105392
0.099639
0.093959
0.088397
0.082932
0.077568
0.072304
0.067143
0.062086
0.057115
0.052269
0.046372
0.041767
0.037255
0.032868
0.028591
0.024424
0.020366
0.016419
0.012581
0.008840
0.005222
0.001713
-0.001686
-0.004977
-0.008160
-0.011248
-0.014216
-0.017079
-0.019837
-0.022491
-0.025042
-0.027490
-0.029846
-0.032093
-0.034242
-0.036293
-0.038247
-0.040107
-0.042304
-0.043955
-0.045515
-0.046987
-0.048372
-0.049676
-0.050890
-0.052021
-0.053072
-0.054043
-0.054937
-0.055754
-0.056500
-0.057170
-0.057769
-0.058299
-0.058762
-0.059158
-0.059492
-0.059761
-0.059971
-0.060121
-0.060214
-0.060251
-0.060235
-0.060167
-0.060048
-0.059880
-0.059666
-0.059406
-0.059020
-0.058664
-0.058268
-0.057834
-0.057363
-0.056857
-0.056315
-0.055743
-0.055140
-0.054508
-0.053849
-0.053163
-0.052452
-0.051716
-0.050960
-0.050183
-0.049387
-0.048573
-0.047742
-0.046892
-0.046031
-0.045157
-0.044272
-0.043375
-0.042469
-0.041555
-0.040629
-0.039700
-0.038766
-0.037595
-0.036648
-0.035704
-0.034757
-0.033810
-0.032864
-0.031918
-0.030975
-0.030030
-0.029093
-0.028160
-0.027231
-0.026308
-0.025391
-0.024481
-0.023575
-0.022680
-0.021793
-0.020915
-0.020047
-0.019188
-0.018337
-0.017499
-0.016673
-0.015858
-0.015054
-0.014263
-0.013485
-0.012716
-0.011778
-0.011042
-0.010320
-0.009608
-0.008913
-0.008232
-0.007566
-0.006913
-0.006276
-0.005653
-0.005042
-0.004448
-0.003869
-0.003305
-0.002756
-0.002222
-0.001703
-0.001196
-0.000707
-0.000232
0.012459
0.036777
0.060297
0.083109
0.105045
0.126199
0.146578
0.166186
0.185033
0.207564
0.224723
0.241145
0.256840
0.271817
0.286138
0.299705
0.312583
0.324783
0.336316
0.347192
0.357423
0.367056
0.376028
0.384390
0.392153
0.399329
0.405932
0.411972
0.417482
0.422434
0.426861
0.430776
0.434193
0.437122
0.439587
0.441580
0.443126
0.444236
0.445031
0.445208
0.444990
0.444391
0.443423
0.442098
0.440430
0.438421
0.436100
0.433472
0.430548
0.427340
0.423860
0.420120
0.416116
0.411888
0.407435
0.402766
0.397892
0.392825
0.387574
0.382130
0.376543
0.370803
0.364921
0.358905
0.352766
0.346488
0.340128
0.332055
0.325490
0.318822
0.312111
0.305338
0.298512
0.291640
0.284730
0.277789
0.270798
0.263816
0.256823
0.249827
0.242833
0.235847
0.228875
0.221897
0.214970
0.208074
0.201213
0.194392
0.187617
0.180891
0.174194
0.167580
0.161028
0.154542
0.148125
0.141781
0.133947
0.127778
0.121692
0.115691
0.109756
0.103934
0.098205
0.092570
0.087032
0.081592
0.076252
0.070994
0.065859
0.060829
0.055903
0.051084
0.046372
0.041767
0.037255
0.032868
0.028591
0.024424
0.020366
0.016419
0.012581
0.008840
0.005222
0.001713
-0.001686
-0.004977
-0.008945
-0.011994
-0.014936
-0.017773
-0.020505
-0.023143
-0.025668
-0.028091
-0.030413
-0.032635
-0.034760
-0.036786
-0.038725
-0.040561
-0.042304
-0.043955
-0.045515
-0.046987
-0.048372
-0.049676
-0.050890
-0.052021
-0.053072
-0.054043
-0.054937
-0.055754
-0.056500
-0.057170
-0.057769
-0.058422
-0.058868
-0.059248
-0.059564
-0.059819
-0.060013
-0.060149
-0.060228
-0.060252
-0.060223
-0.060142
-0.060011
-0.059832
-0.059606
-0.059334
-0.059020
-0.058664
-0.058268
-0.057834
-0.057363
-0.056857
-0.056315
-0.055743
-0.055140
-0.054508
-0.053849
-0.053163
-0.052452
-0.051530
-0.050769
-0.049987
-0.049183
-0.048365
-0.047530
-0.046680
-0.045816
-0.044939
-0.044050
-0.043148
-0.042240
-0.041323
-0.040399
-0.039469
-0.038534
-0.037595
-0.036648
-0.035704
-0.034757
-0.033810
-0.032864
-0.031918
-0.030975
-0.030030
-0.029093
-0.028160
-0.027231
-0.026308
-0.025391
-0.024253
-0.023352
-0.022459
-0.021574
-0.020695
-0.019829
-0.018973
-0.018128
-0.017293
-0.016469
-0.015657
-0.014854
-0.014066
-0.013291
-0.012528
-0.011778
-0.011042
-0.010320
-0.009608
-0.008913
-0.008232
-0.007566
-0.006913
-0.006276
-0.005653
-0.005042
-0.004448
-0.003869
-0.003305
-0.002620
-0.002090
-0.001574
-0.001073
-0.000588
-0.000116
0.018660
0.042777
0.066096
0.088624
0.110366
0.131327
0.151514
0.171006
0.189661
0.207564
0.224723
0.241145
0.256840
0.271817
0.286138
0.299705
0.312583
0.324783
0.336316
0.347192
0.357423
0.367056
0.376028
0.386371
0.394015
0.401046
0.407506
0.413406
0.418761
0.423581
0.427880
0.431683
0.434976
0.437785
0.440124
0.442005
0.443441
0.444445
0.445031
0.445208
0.444990
0.444391
0.443423
0.442098
0.440430
0.438421
0.436100
0.433472
0.430548
0.427340
0.423860
0.420120
0.415089
0.410804
0.406296
0.401557
0.396633
0.391519
0.386224
0.380758
0.375133
0.369357
0.363418
0.357370
0.351201
0.344919
0.338534
0.332055
0.325490
0.318822
0.312111
0.305338
0.298512
0.291640
0.284730
0.277789
0.270798
0.263816
0.256823
0.249827
0.242833
0.234089
0.227122
0.220176
0.213256
0.206368
0.199491
0.192681
0.185918
0.179205
0.172547
0.165949
0.159413
0.152919
0.146520
0.140195
0.133947
0.127778
0.121692
0.115691
0.109756
0.103934
0.098205
0.092570
0.087032
0.081592
0.076252
0.070994
0.065859
0.060829
0.055903
0.049887
0.045202
0.040625
0.036156
0.031797
0.027547
0.023391
0.019362
0.015442
0.011632
0.007932
0.004341
0.000860
-0.002525
-0.005789
-0.008945
-0.011994
-0.014936
-0.017773
-0.020505
-0.023143
-0.025668
-0.028091
-0.030413
-0.032635
-0.034760
-0.036786
-0.038725
-0.041002
-0.042722
-0.044356
-0.045895
-0.047344
-0.048707
-0.049985
-0.051178
-0.052290
-0.053324
-0.054276
-0.055150
-0.055948
-0.056673
-0.057325
-0.057907
-0.058422
-0.058868
-0.059248
-0.059564
-0.059819
-0.060013
-0.060149
-0.060228
-0.060252
-0.060223
-0.060142
-0.060011
-0.059832
-0.059542
-0.059260
-0.058935
-0.058569
-0.058162
-0.057719
-0.057239
-0.056724
-0.056176
-0.055596
-0.054986
-0.054345
-0.053678
-0.052986
-0.052270
-0.051530
-0.050769
-0.049987
-0.049183
-0.048365
-0.047530
-0.046680
-0.045816
-0.044939
-0.044050
-0.043148
-0.042240
-0.041323
-0.040399
-0.039469
-0.038298
-0.037357
-0.036414
-0.035469
-0.034522
-0.033572
-0.032626
-0.031681
-0.030738
-0.029798
-0.028861
-0.027929
-0.026998
-0.026077
-0.025161
-0.024253
-0.023352
-0.022459
-0.021574
-0.020695
-0.019829
-0.018973
-0.018128
-0.017293
-0.016469
-0.015657
-0.014854
-0.014066
-0.013291
-0.012338
-0.011592
-0.010859
-0.010140
-0.009434
-0.008743
-0.008066
-0.007400
-0.006751
-0.006117
-0.005498
-0.004893
-0.004303
-0.003728
-0.003166
-0.002620
-0.002090
-0.001574
-0.001073
-0.000588
-0.000116
0.018660
0.042777
0.066096
0.088624
0.110366
0.131327
0.151514
0.175705
0.194173
0.211890
0.228929
0.245167
0.260680
0.275477
0.289569
0.302964
0.315673
0.327751
0.339117
0.349830
0.359900
0.369339
0.378159
0.386371
0.394015
0.401046
0.407506
0.413406
0.418761
0.423581
0.427880
0.431683
0.434976
0.437785
0.440124
0.442005
0.443441
0.444632
0.445112
0.445190
0.444876
0.444181
0.443122
0.441710
0.439957
0.437875
0.435476
0.432773
0.429766
0.426488
0.422942
0.419138
0.415089
0.410804
0.406296
0.401557
0.396633
0.391519
0.386224
0.380758
0.375133
0.369357
0.363418
0.357370
0.351201
0.344919
0.336911
0.330409
0.323824
0.317163
0.310436
0.303649
0.296785
0.289903
0.282984
0.276037
0.269067
0.262082
0.255088
0.248065
0.241072
0.234089
0.227122
0.220176
0.213256
0.206368
0.199491
0.192681
0.185918
0.179205
0.172547
0.165949
0.159413
0.152919
0.146520
0.138638
0.132385
0.126237
0.120172
0.114194
0.108304
0.102504
0.096798
0.091166
0.085652
0.080238
0.074923
0.069711
0.064601
0.059597
0.054679
0.049887
0.045202
0.040625
0.036156
0.031797
0.027547
0.023391
0.019362
0.015442
0.011632
0.007932
0.004341
0.000860
-0.003345
-0.006582
-0.009712
-0.012745
-0.015661
-0.018471
-0.021177
-0.023779
-0.026278
-0.028676
-0.030982
-0.033180
-0.035279
-0.037282
-0.039189
-0.041002
-0.042722
-0.044356
-0.045895
-0.047344
-0.048707
-0.049985
-0.051178
-0.052290
-0.053324
-0.054276
-0.055150
-0.055948
-0.056673
-0.057479
-0.058043
-0.058539
-0.058968
-0.059332
-0.059634
-0.059873
-0.060053
-0.060174
-0.060239
-0.060250
-0.060207
-0.060113
-0.059970
-0.059779
-0.059542
-0.059260
-0.058935
-0.058569
-0.058162
-0.057719
-0.057239
-0.056724
-0.056176
-0.055596
-0.054986
-0.054345
-0.053678
-0.052986
-0.052086
-0.051340
-0.050574
-0.049787
-0.048982
-0.048159
-0.047320
-0.046463
-0.045596
-0.044716
-0.043825
-0.042923
-0.042013
-0.041094
-0.040165
-0.039234
-0.038298
-0.037357
-0.036414
-0.035469
-0.034522
-0.033572
-0.032626
-0.031681
-0.030738
-0.029798
-0.028861
-0.027929
-0.026998
-0.025849
-0.024935
-0.024025
-0.023126
-0.022235
-0.021353
-0.020480
-0.019616
-0.018763
-0.017916
-0.017084
-0.016264
-0.015454
-0.014657
-0.013872
-0.013100
-0.012338
-0.011592
-0.010859
-0.010140
-0.009434
-0.008743
-0.008066
-0.007400
-0.006751
-0.006117
-0.005498
-0.004893
-0.004303
-0.003586
-0.003029
-0.002487
-0.001961
-0.001447
-0.000950
-0.000467
0.000000
0.024718
0.048636
0.071759
0.094175
0.115720
0.136485
0.156478
0.175705
0.194173
0.211890
0.228929
0.245167
0.260680
0.275477
0.289569
0.302964
0.315673
0.327751
0.339117
0.349830
0.359900
0.371619
0.380284
0.388345
0.395814
0.402702
0.409021
0.414806
0.420025
0.424712
0.428882
0.432546
0.435717
0.438409
0.440640
0.442408
0.443734
0.444632
0.445112
0.445190
0.444876
0.444181
0.443122
0.441710
0.439957
0.437875
0.435476
0.432773
0.429766
0.426488
0.422022
0.418141
0.414031
0.409689
0.405126
0.400354
0.395382
0.390222
0.384863
0.379356
0.373692
0.367879
0.361929
0.355850
0.349652
0.343320
0.336911
0.330409
0.323824
0.317163
0.310436
0.303649
0.296785
0.289903
0.282984
0.276037
0.269067
0.262082
0.255088
0.246329
0.239339
0.232359
0.225370
0.218430
0.211518
0.204638
0.197797
0.190999
0.184248
0.177523
0.170879
0.164296
0.157777
0.151325
0.144944
0.138638
0.132385
0.126237
0.120172
0.114194
0.108304
0.102504
0.096798
0.091166
0.085652
0.080238
0.074923
0.069711
0.063331
0.058353
0.053480
0.048714
0.044056
0.039489
0.035048
0.030716
0.026494
0.022381
0.018379
0.014486
0.010689
0.007017
0.003454
0.000000
-0.003345
-0.006582
-0.009712
-0.012745
-0.015661
-0.018471
-0.021177
-0.023779
-0.026278
-0.028676
-0.030982
-0.033180
-0.035279
-0.037771
-0.039654
-0.041444
-0.043140
-0.044746
-0.046262
-0.047690
-0.049037
-0.050293
-0.051466
-0.052557
-0.053568
-0.054500
-0.055355
-0.056138
-0.056844
-0.057479
-0.058043
-0.058539
-0.058968
-0.059332
-0.059634
-0.059873
-0.060053
-0.060174
-0.060239
-0.060250
-0.060207
-0.060113
-0.059927
-0.059724
-0.059475
-0.059182
-0.058847
-0.058471
-0.058056
-0.057603
-0.057114
-0.056589
-0.056033
-0.055445
-0.054828
-0.054182
-0.053509
-0.052811
-0.052086
-0.051340
-0.050574
-0.049787
-0.048982
-0.048159
-0.047320
-0.046463
-0.045596
-0.044716
-0.043825
-0.042923
-0.042013
-0.040862
-0.039935
-0.039002
-0.038065
-0.037120
-0.036176
-0.035231
-0.034284
-0.033337
-0.032391
-0.031446
-0.030500
-0.029561
-0.028626
-0.027695
-0.026769
-0.025849
-0.024935
-0.024025
-0.023126
-0.022235
-0.021353
-0.020480
-0.019616
-0.018763
-0.017916
-0.017084
-0.016264
-0.015454
-0.014458
-0.013677
-0.012908
-0.012152
-0.011409
-0.010679
-0.009961
-0.009259
-0.008571
-0.007897
-0.007238
-0.006593
-0.005962
-0.005344
-0.004743
-0.004157
-0.003586
-0.003029
-0.002487
-0.001961
-0.001447
-0.000950
-0.000467
0.000000
0.024718
0.048636
0.071759
0.094175
0.115720
0.141517
0.161393
0.180428
0.198706
0.216236
0.233025
0.249083
0.264418
0.279093
0.293008
0.306229
0.318767
0.330632
0.341835
0.352388
0.362337
0.371619
0.380284
0.388345
0.395814
0.402702
0.409021
0.414806
0.420025
0.424712
0.428882
0.432546
0.435717
0.438409
0.441121
0.442778
0.443996
0.444791
0.445170
0.445147
0.444737
0.443952
0.442805
0.441306
0.439463
0.437300
0.434824
0.432046
0.428978
0.425633
0.422022
0.418141
0.414031
0.409689
0.405126
0.400354
0.395382
0.390222
0.384863
0.379356
0.373692
0.367879
0.361929
0.355850
0.348073
0.341739
0.335306
0.328783
0.322153
0.315475
0.308731
0.301931
0.295081
0.288189
0.281263
0.274283
0.267309
0.260321
0.253325
0.246329
0.239339
0.232359
0.225370
0.218430
0.211518
0.204638
0.197797
0.190999
0.184248
0.177523
0.170879
0.164296
0.156145
0.149711
0.143348
0.137061
0.130852
0.124725
0.118681
0.112701
0.106834
0.101058
0.095376
0.089789
0.084300
0.078910
0.073600
0.068414
0.063331
0.058353
0.053480
0.048714
0.044056
0.039489
0.035048
0.030716
0.026494
0.022381
0.018379
0.014486
0.010689
0.006123
0.002587
-0.000853
-0.004171
-0.007381
-0.010483
-0.013478
-0.016368
-0.019152
-0.021842
-0.024418
-0.026892
-0.029264
-0.031537
-0.033710
-0.035785
-0.037771
-0.039654
-0.041444
-0.043140
-0.044746
-0.046262
-0.047690
-0.049037
-0.050293
-0.051466
-0.052557
-0.053568
-0.054500
-0.055559
-0.056320
-0.057008
-0.057625
-0.058174
-0.058653
-0.059066
-0.059414
-0.059699
-0.059923
-0.060088
-0.060196
-0.060247
-0.060244
-0.060189
-0.060082
-0.059927
-0.059724
-0.059475
-0.059182
-0.058847
-0.058471
-0.058056
-0.057603
-0.057114
-0.056589
-0.056033
-0.055445
-0.054828
-0.054015
-0.053336
-0.052631
-0.051903
-0.051152
-0.050380
-0.049586
-0.048776
-0.047949
-0.047107
-0.046249
-0.045379
-0.044496
-0.043599
-0.042695
-0.041782
-0.040862
-0.039935
-0.039002
-0.038065
-0.037120
-0.036176
-0.035231
-0.034284
-0.033337
-0.032391
-0.031446
-0.030500
-0.029561
-0.028394
-0.027461
-0.026537
-0.025618
-0.024706
-0.023801
-0.022904
-0.022015
-0.021132
-0.020261
-0.019400
-0.018549
-0.017709
-0.016880
-0.016062
-0.015252
-0.014458
-0.013677
-0.012908
-0.012152
-0.011409
-0.010679
-0.009961
-0.009259
-0.008571
-0.007897
-0.007238
-0.006593
-0.005962
-0.005194
-0.004596
-0.004014
-0.003444
-0.002891
-0.002353
-0.001830
-0.001322
-0.000829
-0.000350
0.006302
0.030818
0.054536
0.077459
0.099593
0.120944
0.141517
0.161393
0.180428
0.198706
0.216236
0.233025
0.249083
0.264418
0.279093
0.293008
0.306229
0.318767
0.330632
0.344554
0.354944
0.364698
0.373826
0.382340
0.390282
0.397603
0.404347
0.410525
0.416151
0.421237
0.425795
0.429852
0.433391
0.436440
0.439012
0.441121
0.442778
0.443996
0.444791
0.445170
0.445147
0.444737
0.443952
0.442805
0.441306
0.439463
0.437300
0.434824
0.431300
0.428161
0.424748
0.421072
0.417143
0.412975
0.408577
0.403943
0.399120
0.394099
0.388893
0.383512
0.377965
0.372263
0.366393
0.360410
0.354300
0.348073
0.341739
0.335306
0.328783
0.322153
0.315475
0.308731
0.301931
0.295081
0.288189
0.281263
0.274283
0.265576
0.258586
0.251563
0.244568
0.237579
0.230603
0.223646
0.216712
0.209808
0.202911
0.196080
0.189293
0.182555
0.175869
0.169241
0.162673
0.156145
0.149711
0.143348
0.137061
0.130852
0.124725
0.118681
0.112701
0.106834
0.101058
0.095376
0.089789
0.084300
0.077568
0.072304
0.067143
0.062086
0.057115
0.052269
0.047531
0.042900
0.038377
0.033963
0.029658
0.025448
0.021363
0.017388
0.013523
0.009768
0.006123
0.002587
-0.000853
-0.004171
-0.007381
-0.010483
-0.013478
-0.016368
-0.019152
-0.021842
-0.024418
-0.026892
-0.029264
-0.032093
-0.034242
-0.036293
-0.038247
-0.040107
-0.041873
-0.043553
-0.045137
-0.046630
-0.048036
-0.049356
-0.050592
-0.051744
-0.052819
-0.053810
-0.054722
-0.055559
-0.056320
-0.057008
-0.057625
-0.058174
-0.058653
-0.059066
-0.059414
-0.059699
-0.059923
-0.060088
-0.060196
-0.060247
-0.060235
-0.060167
-0.060048
-0.059880
-0.059666
-0.059406
-0.059103
-0.058757
-0.058370
-0.057945
-0.057483
-0.056986
-0.056454
-0.055890
-0.055295
-0.054668
-0.054015
-0.053336
-0.052631
-0.051903
-0.051152
-0.050380
-0.049586
-0.048776
-0.047949
-0.047107
-0.046249
-0.045379
-0.044496
-0.043375
-0.042469
-0.041555
-0.040629
-0.039700
-0.038766
-0.037828
-0.036886
-0.035942
-0.034996
-0.034045
-0.033099
-0.032153
-0.031209
-0.030267
-0.029329
-0.028394
-0.027461
-0.026537
-0.025618
-0.024706
-0.023801
-0.022904
-0.022015
-0.021132
-0.020261
-0.019400
-0.018549
-0.017709
-0.016673
-0.015858
-0.015054
-0.014263
-0.013485
-0.012716
-0.011963
-0.011224
-0.010498
-0.009785
-0.009087
-0.008402
-0.007730
-0.007074
-0.006433
-0.005806
-0.005194
-0.004596
-0.004014
-0.003444
-0.002891
-0.002353
-0.001830
-0.001322
-0.000829
-0.000350
0.006302
0.030818
0.054536
0.083109
0.105045
0.126199
0.146578
0.166186
0.185033
0.203125
0.220535
0.237139
0.253014
0.268168
0.282611
0.296353
0.309403
0.321819
0.333516
0.344554
0.354944
0.364698
0.373826
0.382340
0.390282
0.397603
0.404347
0.410525
0.416151
0.421237
0.425795
0.429852
0.434193
0.437122
0.439587
0.441580
0.443126
0.444236
0.444923
0.445201
0.445081
0.444574
0.443697
0.442460
0.440875
0.438956
0.436714
0.434162
0.431300
0.428161
0.424748
0.421072
0.417143
0.412975
0.408577
0.403943
0.399120
0.394099
0.388893
0.383512
0.377965
0.370803
0.364921
0.358905
0.352766
0.346488
0.340128
0.333671
0.327126
0.320503
0.313807
0.307049
0.300210
0.293349
0.286447
0.279514
0.272554
0.265576
0.258586
0.251563
0.244568
0.237579
0.230603
0.223646
0.216712
0.209808
0.202911
0.196080
0.189293
0.182555
0.175869
0.167580
0.161028
0.154542
0.148125
0.141781
0.135490
0.129301
0.123194
0.117172
0.111237
0.105392
0.099639
0.093959
0.088397
0.082932
0.077568
0.072304
0.067143
0.062086
0.057115
0.052269
0.047531
0.042900
0.038377
0.033963
0.029658
0.025448
0.021363
0.017388
0.012581
0.008840
0.005222
0.001713
-0.001686
-0.004977
-0.008160
-0.011248
-0.014216
-0.017079
-0.019837
-0.022491
-0.025042
-0.027490
-0.029846
-0.032093
-0.034242
-0.036293
-0.038247
-0.040107
-0.041873
-0.043553
-0.045137
-0.046630
-0.048036
-0.049356
-0.050592
-0.051744
-0.052819
-0.054043
-0.054937
-0.055754
-0.056500
-0.057170
-0.057769
-0.058299
-0.058762
-0.059158
-0.059492
-0.059761
-0.059971
-0.060121
-0.060214
-0.060251
-0.060235
-0.060167
-0.060048
-0.059880
-0.059666
-0.059406
-0.059103
-0.058757
-0.058370
-0.057945
-0.057483
-0.056986
-0.056454
-0.055890
-0.055140
-0.054508
-0.053849
-0.053163
-0.052452
-0.051716
-0.050960
-0.050183
-0.049387
-0.048573
-0.047742
-0.046892
-0.046031
-0.045157
-0.044272
-0.043375
-0.042469
-0.041555
-0.040629
-0.039700
-0.038766
-0.037828
-0.036886
-0.035942
-0.034996
-0.034045
-0.033099
-0.032153
-0.030975
-0.030030
-0.029093
-0.028160
-0.027231
-0.026308
-0.025391
-0.024481
-0.023575
-0.022680
-0.021793
-0.020915
-0.020047
-0.019188
-0.018337
-0.017499
-0.016673
-0.015858
-0.015054
-0.014263
-0.013485
-0.012716
-0.011963
-0.011224
-0.010498
-0.009785
-0.009087
-0.008402
-0.007730
-0.006913
-0.006276
-0.005653
-0.005042
-0.004448
-0.003869
-0.003305
-0.002756
-0.002222
-0.001703
-0.001196
-0.000707
-0.000232
0.012459
0.036777
0.060297
0.083109
0.105045
0.126199
0.146578
0.166186
0.185033
0.203125
0.220535
0.237139
0.253014
0.268168
0.282611
0.296353
0.312583
0.324783
0.336316
0.347192
0.357423
0.367056
0.376028
0.384390
0.392153
0.399329
0.405932
0.411972
0.417482
0.422434
0.426861
0.430776
0.434193
0.437122
0.439587
0.441580
0.443126
0.444236
0.444923
0.445201
0.445081
0.444574
0.443697
0.442460
0.440875
0.438421
0.436100
0.433472
0.430548
0.427340
0.423860
0.420120
0.416116
0.411888
0.407435
0.402766
0.397892
0.392825
0.387574
0.382130
0.376543
0.370803
0.364921
0.358905
0.352766
0.346488
0.340128
0.333671
0.327126
0.320503
0.313807
0.307049
0.300210
0.293349
0.286447
0.277789
0.270798
0.263816
0.256823
0.249827
0.242833
0.235847
0.228875
0.221897
0.214970
0.208074
0.201213
0.194392
0.187617
0.180891
0.174194
0.167580
0.161028
0.154542
0.148125
0.141781
0.135490
0.129301
0.123194
0.117172
0.111237
0.105392
0.099639
0.093959
0.087032
0.081592
0.076252
0.070994
0.065859
0.060829
0.055903
0.051084
0.046372
0.041767
0.037255
0.032868
0.028591
0.024424
0.020366
0.016419
0.012581
0.008840
0.005222
0.001713
-0.001686
-0.004977
-0.008160
-0.011248
-0.014216
-0.017079
-0.019837
-0.022491
-0.025668
-0.028091
-0.030413
-0.032635
-0.034760
-0.036786
-0.038725
-0.040561
-0.042304
-0.043955
-0.045515
-0.046987
-0.048372
-0.049676
-0.050890
-0.052021
-0.053072
-0.054043
-0.054937
-0.055754
-0.056500
-0.057170
-0.057769
-0.058299
-0.058762
-0.059158
-0.059492
-0.059761
-0.059971
-0.060149
-0.060228
-0.060252
-0.060223
-0.060142
-0.060011
-0.059832
-0.059606
-0.059334
-0.059020
-0.058664
-0.058268
-0.057834
-0.057363
-0.056857
-0.056315
-0.055743
-0.055140
-0.054508
-0.053849
-0.053163
-0.052452
-0.051716
-0.050960
-0.050183
-0.049387
-0.048573
-0.047742
-0.046892
-0.046031
-0.044939
-0.044050
-0.043148
-0.042240
-0.041323
-0.040399
-0.039469
-0.038534
-0.037595
-0.036648
-0.035704
-0.034757
-0.033810
-0.032864
-0.031918
-0.030975
-0.030030
-0.029093
-0.028160
-0.027231
-0.026308
-0.025391
-0.024481
-0.023575
-0.022680
-0.021793
-0.020915
-0.020047
-0.019188
-0.018128
-0.017293
-0.016469
-0.015657
-0.014854
-0.014066
-0.013291
-0.012528
-0.011778
-0.011042
-0.010320
-0.009608
-0.008913
-0.008232
-0.007566
-0.006913
-0.006276
-0.005653
-0.005042
-0.004448
-0.003869
-0.003305
-0.002756
-0.002222
-0.001703
-0.001196
-0.000707
-0.000232
0.012459
0.042777
0.066096
0.088624
0.110366
0.131327
0.151514
0.171006
0.189661
0.207564
0.224723
0.241145
0.256840
0.271817
0.286138
0.299705
0.312583
0.324783
0.336316
0.347192
0.357423
0.367056
0.376028
0.384390
0.392153
0.399329
0.405932
0.411972
0.417482
0.423581
0.427880
0.431683
0.434976
0.437785
0.440124
0.442005
0.443441
0.444445
0.445031
0.445208
0.444990
0.444391
0.443423
0.442098
0.440430
0.438421
0.436100
0.433472
0.430548
0.427340
0.423860
0.420120
0.416116
0.411888
0.407435
0.402766
0.397892
0.392825
0.387574
0.380758
0.375133
0.369357
0.363418
0.357370
0.351201
0.344919
0.338534
0.332055
0.325490
0.318822
0.312111
0.305338
0.298512
0.291640
0.284730
0.277789
0.270798
0.263816
0.256823
0.249827
0.242833
0.235847
0.228875
0.221897
0.214970
0.208074
0.201213
0.194392
0.185918
0.179205
0.172547
0.165949
0.159413
0.152919
0.146520
0.140195
0.133947
0.127778
0.121692
0.115691
0.109756
0.103934
0.098205
0.092570
0.087032
0.081592
0.076252
0.070994
0.065859
0.060829
0.055903
0.051084
0.046372
0.041767
0.037255
0.032868
0.028591
0.023391
0.019362
0.015442
0.011632
0.007932
0.004341
0.000860
-0.002525
-0.005789
-0.008945
-0.011994
-0.014936
-0.017773
-0.020505
-0.023143
-0.025668
-0.028091
-0.030413
-0.032635
-0.034760
-0.036786
-0.038725
-0.040561
-0.042304
-0.043955
-0.045515
-0.046987
-0.048372
-0.049676
-0.051178
-0.052290
-0.053324
-0.054276
-0.055150
-0.055948
-0.056673
-0.057325
-0.057907
-0.058422
-0.058868
-0.059248
-0.059564
-0.059819
-0.060013
-0.060149
-0.060228
-0.060252
-0.060223
-0.060142
-0.060011
-0.059832
-0.059606
-0.059334
-0.059020
-0.058664
-0.058268
-0.057834
-0.057363
-0.056724
-0.056176
-0.055596
-0.054986
-0.054345
-0.053678
-0.052986
-0.052270
-0.051530
-0.050769
-0.049987
-0.049183
-0.048365
-0.047530
-0.046680
-0.045816
-0.044939
-0.044050
-0.043148
-0.042240
-0.041323
-0.040399
-0.039469
-0.038534
-0.037595
-0.036648
-0.035704
-0.034757
-0.033810
-0.032626
-0.031681
-0.030738
-0.029798
-0.028861
-0.027929
-0.026998
-0.026077
-0.025161
-0.024253
-0.023352
-0.022459
-0.021574
-0.020695
-0.019829
-0.018973
-0.018128
-0.017293
-0.016469
-0.015657
-0.014854
-0.014066
-0.013291
-0.012528
-0.011778
-0.011042
-0.010320
-0.009608
-0.008913
-0.008066
-0.007400
-0.006751
-0.006117
-0.005498
-0.004893
-0.004303
-0.003728
-0.003166
-0.002620
-0.002090
-0.001574
-0.001073
-0.000588
-0.000116
0.018660
0.042777
0.066096
0.088624
0.110366
0.131327
0.151514
0.171006
0.189661
0.207564
0.224723
0.241145
0.256840
0.271817
0.289569
0.302964
0.315673
0.327751
0.339117
0.349830
0.359900
0.369339
0.378159
0.386371
0.394015
0.401046
0.407506
0.413406
0.418761
0.423581
0.427880
0.431683
0.434976
0.437785
0.440124
0.442005
0.443441
0.444445
0.445031
0.445208
0.444990
0.444391
0.443423
0.441710
0.439957
0.437875
0.435476
0.432773
0.429766
0.426488
0.422942
0.419138
0.415089
0.410804
0.406296
0.401557
0.396633
0.391519
0.386224
0.380758
0.375133
0.369357
0.363418
0.357370
0.351201
0.344919
0.338534
0.332055
0.325490
0.318822
0.312111
0.305338
0.296785
0.289903
0.282984
0.276037
0.269067
0.262082
0.255088
0.248065
0.241072
0.234089
0.227122
0.220176
0.213256
0.206368
0.199491
0.192681
0.185918
0.179205
0.172547
0.165949
0.159413
0.152919
0.146520
0.140195
0.133947
0.127778
0.121692
0.115691
0.109756
0.102504
0.096798
0.091166
0.085652
0.080238
0.074923
0.069711
0.064601
0.059597
0.054679
0.049887
0.045202
0.040625
0.036156
0.031797
0.027547
0.023391
0.019362
0.015442
0.011632
0.007932
0.004341
0.000860
-0.002525
-0.005789
-0.008945
-0.011994
-0.014936
-0.018471
-0.021177
-0.023779
-0.026278
-0.028676
-0.030982
-0.033180
-0.035279
-0.037282
-0.039189
-0.041002
-0.042722
-0.044356
-0.045895
-0.047344
-0.048707
-0.049985
-0.051178
-0.052290
-0.053324
-0.054276
-0.055150
-0.055948
-0.056673
-0.057325
-0.057907
-0.058422
-0.058868
-0.059248
-0.059634
-0.059873
-0.060053
-0.060174
-0.060239
-0.060250
-0.060207
-0.060113
-0.059970
-0.059779
-0.059542
-0.059260
-0.058935
-0.058569
-0.058162
-0.057719
-0.057239
-0.056724
-0.056176
-0.055596
-0.054986
-0.054345
-0.053678
-0.052986
-0.052270
-0.051530
-0.050769
-0.049987
-0.049183
-0.048365
-0.047320
-0.046463
-0.045596
-0.044716
-0.043825
-0.042923
-0.042013
-0.041094
-0.040165
-0.039234
-0.038298
-0.037357
-0.036414
-0.035469
-0.034522
-0.033572
-0.032626
-0.031681
-0.030738
-0.029798
-0.028861
-0.027929
-0.026998
-0.026077
-0.025161
-0.024253
-0.023352
-0.022459
-0.021574
-0.020480
-0.019616
-0.018763
-0.017916
-0.017084
-0.016264
-0.015454
-0.014657
-0.013872
-0.013100
-0.012338
-0.011592
-0.010859
-0.010140
-0.009434
-0.008743
-0.008066
-0.007400
-0.006751
-0.006117
-0.005498
-0.004893
-0.004303
-0.003728
-0.003166
-0.002620
-0.002090
-0.001574
-0.000950
-0.000467
-0.000000
0.024718
0.048636
0.071759
0.094175
0.115720
0.136485
0.156478
0.175705
0.194173
0.211890
0.228929
0.245167
0.260680
0.275477
0.289569
0.302964
0.315673
0.327751
0.339117
0.349830
0.359900
0.369339
0.378159
0.386371
0.394015
0.401046
0.407506
0.414806
0.420025
0.424712
0.428882
0.432546
0.435717
0.438409
0.440640
0.442408
0.443734
0.444632
0.445112
0.445190
0.444876
0.444181
0.443122
0.441710
0.439957
0.437875
0.435476
0.432773
0.429766
0.426488
0.422942
0.419138
0.415089
0.410804
0.406296
0.401557
0.395382
0.390222
0.384863
0.379356
0.373692
0.367879
0.361929
0.355850
0.349652
0.343320
0.336911
0.330409
0.323824
0.317163
0.310436
0.303649
0.296785
0.289903
0.282984
0.276037
0.269067
0.262082
0.255088
0.248065
0.241072
0.234089
0.227122
0.220176
0.211518
0.204638
0.197797
0.190999
0.184248
0.177523
0.170879
0.164296
0.157777
0.151325
0.144944
0.138638
0.132385
0.126237
0.120172
0.114194
0.108304
0.102504
0.096798
0.091166
0.085652
0.080238
0.074923
0.069711
0.064601
0.059597
0.054679
0.049887
0.045202
0.040625
0.035048
0.030716
0.026494
0.022381
0.018379
0.014486
0.010689
0.007017
0.003454
-0.000000
-0.003345
-0.006582
-0.009712
-0.012745
-0.015661
-0.018471
-0.021177
-0.023779
-0.026278
-0.028676
-0.030982
-0.033180
-0.035279
-0.037282
-0.039189
-0.041002
-0.042722
-0.044356
-0.045895
-0.047690
-0.049037
-0.050293
-0.051466
-0.052557
-0.053568
-0.054500
-0.055355
-0.056138
-0.056844
-0.057479
-0.058043
-0.058539
-0.058968
-0.059332
-0.059634
-0.059873
-0.060053
-0.060174
-0.060239
-0.060250
-0.060207
-0.060113
-0.059970
-0.059779
-0.059542
-0.059260
-0.058935
-0.058569
-0.058056
-0.057603
-0.057114
-0.056589
-0.056033
-0.055445
-0.054828
-0.054182
-0.053509
-0.052811
-0.052086
-0.051340
-0.050574
-0.049787
-0.048982
-0.048159
-0.047320
-0.046463
-0.045596
-0.044716
-0.043825
-0.042923
-0.042013
-0.041094
-0.040165
-0.039234
-0.038298
-0.037357
-0.036414
-0.035231
-0.034284
-0.033337
-0.032391
-0.031446
-0.030500
-0.029561
-0.028626
-0.027695
-0.026769
-0.025849
-0.024935
-0.024025
-0.023126
-0.022235
-0.021353
-0.020480
-0.019616
-0.018763
-0.017916
-0.017084
-0.016264
-0.015454
-0.014657
-0.013872
-0.013100
-0.012338
-0.011592
-0.010859
-0.009961
-0.009259
-0.008571
-0.007897
-0.007238
-0.006593
-0.005962
-0.005344
-0.004743
-0.004157
-0.003586
-0.003029
-0.002487
-0.001961
-0.001447
-0.000950
-0.000467
0.000000
0.024718
0.048636
0.071759
0.094175
0.115720
0.136485
0.156478
0.175705
0.194173
0.211890
0.228929
0.249083
0.264418
0.279093
0.293008
0.306229
0.318767
0.330632
0.341835
0.352388
0.362337
0.371619
0.380284
0.388345
0.395814
0.402702
0.409021
0.414806
0.420025
0.424712
0.428882
0.432546
0.435717
0.438409
0.440640
0.442408
0.443734
0.444632
0.445112
0.445190
0.444737
0.443952
0.442805
0.441306
0.439463
0.437300
0.434824
0.432046
0.428978
0.425633
0.422022
0.418141
0.414031
0.409689
0.405126
0.400354
0.395382
0.390222
0.384863
0.379356
0.373692
0.367879
0.361929
0.355850
0.349652
0.343320
0.336911
0.330409
0.323824
0.317163
0.308731
0.301931
0.295081
0.288189
0.281263
0.274283
0.267309
0.260321
0.253325
0.246329
0.239339
0.232359
0.225370
0.218430
0.211518
0.204638
0.197797
0.190999
0.184248
0.177523
0.170879
0.164296
0.157777
0.151325
0.144944
0.138638
0.132385
0.126237
0.120172
0.112701
0.106834
0.101058
0.095376
0.089789
0.084300
0.078910
0.073600
0.068414
0.063331
0.058353
0.053480
0.048714
0.044056
0.039489
0.035048
0.030716
0.026494
0.022381
0.018379
0.014486
0.010689
0.007017
0.003454
0.000000
-0.003345
-0.006582
-0.009712
-0.013478
-0.016368
-0.019152
-0.021842
-0.024418
-0.026892
-0.029264
-0.031537
-0.033710
-0.035785
-0.037771
-0.039654
-0.041444
-0.043140
-0.044746
-0.046262
-0.047690
-0.049037
-0.050293
-0.051466
-0.052557
-0.053568
-0.054500
-0.055355
-0.056138
-0.056844
-0.057479
-0.058043
-0.058539
-0.059066
-0.059414
-0.059699
-0.059923
-0.060088
-0.060196
-0.060247
-0.060244
-0.060189
-0.060082
-0.059927
-0.059724
-0.059475
-0.059182
-0.058847
-0.058471
-0.058056
-0.057603
-0.057114
-0.056589
-0.056033
-0.055445
-0.054828
-0.054182
-0.053509
-0.052811
-0.052086
-0.051340
-0.050574
-0.049586
-0.048776
-0.047949
-0.047107
-0.046249
-0.045379
-0.044496
-0.043599
-0.042695
-0.041782
-0.040862
-0.039935
-0.039002
-0.038065
-0.037120
-0.036176
-0.035231
-0.034284
-0.033337
-0.032391
-0.031446
-0.030500
-0.029561
-0.028626
-0.027695
-0.026769
-0.025849
-0.024935
-0.024025
-0.022904
-0.022015
-0.021132
-0.020261
-0.019400
-0.018549
-0.017709
-0.016880
-0.016062
-0.015252
-0.014458
-0.013677
-0.012908
-0.012152
-0.011409
-0.010679
-0.009961
-0.009259
-0.008571
-0.007897
-0.007238
-0.006593
-0.005962
-0.005344
-0.004743
-0.004157
-0.003586
-0.003029
-0.002487
-0.001961
-0.001322
-0.000829
-0.000350
0.006302
0.030818
0.054536
0.077459
0.099593
0.120944
0.141517
0.161393
0.180428
0.198706
0.216236
0.233025
0.249083
0.264418
0.279093
0.293008
0.306229
0.318767
0.330632
0.341835
0.352388
0.362337
0.371619
0.380284
0.388345
0.395814
0.404347
0.410525
0.416151
0.421237
0.425795
0.429852
0.433391
0.436440
0.439012
0.441121
0.442778
0.443996
0.444791
0.445170
0.445147
0.444737
0.443952
0.442805
0.441306
0.439463
0.437300
0.434824
0.432046
0.428978
0.425633
0.422022
0.418141
0.414031
0.409689
0.403943
0.399120
0.394099
0.388893
0.383512
0.377965
0.372263
0.366393
0.360410
0.354300
0.348073
0.341739
0.335306
0.328783
0.322153
0.315475
0.308731
0.301931
0.295081
0.288189
0.281263
0.274283
0.267309
0.260321
0.253325
0.246329
0.239339
0.232359
0.225370
0.216712
0.209808
0.202911
0.196080
0.189293
0.182555
0.175869
0.169241
0.162673
0.156145
0.149711
0.143348
0.137061
0.130852
0.124725
0.118681
0.112701
0.106834
0.101058
0.095376
0.089789
0.084300
0.078910
0.073600
0.068414
0.063331
0.058353
0.053480
0.048714
0.042900
0.038377
0.033963
0.029658
0.025448
0.021363
0.017388
0.013523
0.009768
0.006123
0.002587
-0.000853
-0.004171
-0.007381
-0.010483
-0.013478
-0.016368
-0.019152
-0.021842
-0.024418
-0.026892
-0.029264
-0.031537
-0.033710
-0.035785
-0.037771
-0.039654
-0.041444
-0.043140
-0.045137
-0.046630
-0.048036
-0.049356
-0.050592
-0.051744
-0.052819
-0.053810
-0.054722
-0.055559
-0.056320
-0.057008
-0.057625
-0.058174
-0.058653
-0.059066
-0.059414
-0.059699
-0.059923
-0.060088
-0.060196
-0.060247
-0.060244
-0.060189
-0.060082
-0.059927
-0.059724
-0.059475
-0.059182
-0.058757
-0.058370
-0.057945
-0.057483
-0.056986
-0.056454
-0.055890
-0.055295
-0.054668
-0.054015
-0.053336
-0.052631
-0.051903
-0.051152
-0.050380
-0.049586
-0.048776
-0.047949
-0.047107
-0.046249
-0.045379
-0.044496
-0.043599
-0.042695
-0.041782
-0.040862
-0.039935
-0.039002
-0.038065
-0.037120
-0.035942
-0.034996
-0.034045
-0.033099
-0.032153
-0.031209
-0.030267
-0.029329
-0.028394
-0.027461
-0.026537
-0.025618
-0.024706
-0.023801
-0.022904
-0.022015
-0.021132
-0.020261
-0.019400
-0.018549
-0.017709
-0.016880
-0.016062
-0.015252
-0.014458
-0.013677
-0.012908
-0.012152
-0.011409
-0.010498
-0.009785
-0.009087
-0.008402
-0.007730
-0.007074
-0.006433
-0.005806
-0.005194
-0.004596
-0.004014
-0.003444
-0.002891
-0.002353
-0.001830
-0.001322
-0.000829
-0.000350
0.006302
0.030818
0.054536
0.077459
0.099593
0.120944
0.141517
0.161393
0.180428
0.198706
0.220535
0.237139
0.253014
0.268168
0.282611
0.296353
0.309403
0.321819
0.333516
0.344554
0.354944
0.364698
0.373826
0.382340
0.390282
0.397603
0.404347
0.410525
0.416151
0.421237
0.425795
0.429852
0.433391
0.436440
0.439012
0.441121
0.442778
0.443996
0.444791
0.445170
0.445081
0.444574
0.443697
0.442460
0.440875
0.438956
0.436714
0.434162
0.431300
0.428161
0.424748
0.421072
0.417143
0.412975
0.408577
0.403943
0.399120
0.394099
0.388893
0.383512
0.377965
0.372263
0.366393
0.360410
0.354300
0.348073
0.341739
0.335306
0.328783
0.320503
0.313807
0.307049
0.300210
0.293349
0.286447
0.279514
0.272554
0.265576
0.258586
0.251563
0.244568
0.237579
0.230603
0.223646
0.216712
0.209808
0.202911
0.196080
0.189293
0.182555
0.175869
0.169241
0.162673
0.156145
0.149711
0.143348
0.137061
0.130852
0.123194
0.117172
0.111237
0.105392
0.099639
0.093959
0.088397
0.082932
0.077568
0.072304
0.067143
0.062086
0.057115
0.052269
0.047531
0.042900
0.038377
0.033963
0.029658
0.025448
0.021363
0.017388
0.013523
0.009768
0.006123
0.002587
-0.000853
-0.004171
-0.007381
-0.010483
-0.014216
-0.017079
-0.019837
-0.022491
-0.025042
-0.027490
-0.029846
-0.032093
-0.034242
-0.036293
-0.038247
-0.040107
-0.041873
-0.043553
-0.045137
-0.046630
-0.048036
-0.049356
-0.050592
-0.051744
-0.052819
-0.053810
-0.054722
-0.055559
-0.056320
-0.057008
-0.057625
-0.058174
-0.058653
-0.059158
-0.059492
-0.059761
-0.059971
-0.060121
-0.060214
-0.060251
-0.060235
-0.060167
-0.060048
-0.059880
-0.059666
-0.059406
-0.059103
-0.058757
-0.058370
-0.057945
-0.057483
-0.056986
-0.056454
-0.055890
-0.055295
-0.054668
-0.054015
-0.053336
-0.052631
-0.051903
-0.051152
-0.050380
-0.049387
-0.048573
-0.047742
-0.046892
-0.046031
-0.045157
-0.044272
-0.043375
-0.042469
-0.041555
-0.040629
-0.039700
-0.038766
-0.037828
-0.036886
-0.035942
-0.034996
-0.034045
-0.033099
-0.032153
-0.031209
-0.030267
-0.029329
-0.028394
-0.027461
-0.026537
-0.025618
-0.024706
-0.023801
-0.022680
-0.021793
-0.020915
-0.020047
-0.019188
-0.018337
-0.017499
-0.016673
-0.015858
-0.015054
-0.014263
-0.013485
-0.012716
-0.011963
-0.011224
-0.010498
-0.009785
-0.009087
-0.008402
-0.007730
-0.007074
-0.006433
-0.005806
-0.005194
-0.004596
-0.004014
-0.003444
-0.002891
-0.002353
-0.001703
-0.001196
-0.000707
-0.000232
0.012459
0.036777
0.060297
0.083109
0.105045
0.126199
0.146578
0.166186
0.185033
0.203125
0.220535
0.237139
0.253014
0.268168
0.282611
0.296353
0.309403
0.321819
0.333516
0.344554
0.354944
0.364698
0.373826
0.382340
0.390282
0.399329
0.405932
0.411972
0.417482
0.422434
0.426861
0.430776
0.434193
0.437122
0.439587
0.441580
0.443126
0.444236
0.444923
0.445201
0.445081
0.444574
0.443697
0.442460
0.440875
0.438956
0.436714
0.434162
0.431300
0.428161
0.424748
0.421072
0.417143
0.412975
0.407435
0.402766
0.397892
0.392825
0.387574
0.382130
0.376543
0.370803
0.364921
0.358905
0.352766
0.346488
0.340128
0.333671
0.327126
0.320503
0.313807
0.307049
0.300210
0.293349
0.286447
0.279514
0.272554
0.265576
0.258586
0.251563
0.244568
0.237579
0.230603
0.221897
0.214970
0.208074
0.201213
0.194392
0.187617
0.180891
0.174194
0.167580
0.161028
0.154542
0.148125
0.141781
0.135490
0.129301
0.123194
0.117172
0.111237
0.105392
0.099639
0.093959
0.088397
0.082932
0.077568
0.072304
0.067143
0.062086
0.057115
0.052269
0.046372
0.041767
0.037255
0.032868
0.028591
0.024424
0.020366
0.016419
0.012581
0.008840
0.005222
0.001713
-0.001686
-0.004977
-0.008160
-0.011248
-0.014216
-0.017079
-0.019837
-0.022491
-0.025042
-0.027490
-0.029846
-0.032093
-0.034242
-0.036293
-0.038247
-0.040107
-0.041873
-0.043955
-0.045515
-0.046987
-0.048372
-0.049676
-0.050890
-0.052021
-0.053072
-0.054043
-0.054937
-0.055754
-0.056500
-0.057170
-0.057769
-0.058299
-0.058762
-0.059158
-0.059492
-0.059761
-0.059971
-0.060121
-0.060214
-0.060251
-0.060235
-0.060167
-0.060048
-0.059880
-0.059666
-0.059406
-0.059103
-0.058664
-0.058268
-0.057834
-0.057363
-0.056857
-0.056315
-0.055743
-0.055140
-0.054508
-0.053849
-0.053163
-0.052452
-0.051716
-0.050960
-0.050183
-0.049387
-0.048573
-0.047742
-0.046892
-0.046031
-0.045157
-0.044272
-0.043375
-0.042469
-0.041555
-0.040629
-0.039700
-0.038766
-0.037595
-0.036648
-0.035704
-0.034757
-0.033810
-0.032864
-0.031918
-0.030975
-0.030030
-0.029093
-0.028160
-0.027231
-0.026308
-0.025391
-0.024481
-0.023575
-0.022680
-0.021793
-0.020915
-0.020047
-0.019188
-0.018337
-0.017499
-0.016673
-0.015858
-0.015054
-0.014263
-0.013485
-0.012716
-0.011778
-0.011042
-0.010320
-0.009608
-0.008913
-0.008232
-0.007566
-0.006913
-0.006276
-0.005653
-0.005042
-0.004448
-0.003869
-0.003305
-0.002756
-0.002222
-0.001703
-0.001196
-0.000707
-0.000232
0.012459
0.036777
0.060297
0.083109
0.105045
0.126199
0.146578
0.166186
0.185033
0.207564
0.224723
0.241145
0.256840
0.271817
0.286138
0.299705
0.312583
0.324783
0.336316
0.347192
0.357423
0.367056
0.376028
0.384390
0.392153
0.399329
0.405932
0.411972
0.417482
0.422434
0.426861
0.430776
0.434193
0.437122
0.439587
0.441580
0.443126
0.444236
0.445031
0.445208
0.444990
0.444391
0.443423
0.442098
0.440430
0.438421
0.436100
0.433472
0.430548
0.427340
0.423860
0.420120
0.416116
0.411888
0.407435
0.402766
0.397892
0.392825
0.387574
0.382130
0.376543
0.370803
0.364921
0.358905
0.352766
0.346488
0.340128
0.332055
0.325490
0.318822
0.312111
0.305338
0.298512
0.291640
0.284730
0.277789
0.270798
0.263816
0.256823
0.249827
0.242833
0.235847
0.228875
0.221897
0.214970
0.208074
0.201213
0.194392
0.187617
0.180891
0.174194
0.167580
0.161028
0.154542
0.148125
0.141781
0.133947
0.127778
0.121692
0.115691
0.109756
0.103934
0.098205
0.092570
0.087032
0.081592
0.076252
0.070994
0.065859
0.060829
0.055903
0.051084
0.046372
0.041767
0.037255
0.032868
0.028591
0.024424
0.020366
0.016419
0.012581
0.008840
0.005222
0.001713
-0.001686
-0.005789
-0.008945
-0.011994
-0.014936
-0.017773
-0.020505
-0.023143
-0.025668
-0.028091
-0.030413
-0.032635
-0.034760
-0.036786
-0.038725
-0.040561
-0.042304
-0.043955
-0.045515
-0.046987
-0.048372
-0.049676
-0.050890
-0.052021
-0.053072
-0.054043
-0.054937
-0.055754
-0.056500
-0.057170
-0.057907
-0.058422
-0.058868
-0.059248
-0.059564
-0.059819
-0.060013
-0.060149
-0.060228
-0.060252
-0.060223
-0.060142
-0.060011
-0.059832
-0.059606
-0.059334
-0.059020
-0.058664
-0.058268
-0.057834
-0.057363
-0.056857
-0.056315
-0.055743
-0.055140
-0.054508
-0.053849
-0.053163
-0.052452
-0.051530
-0.050769
-0.049987
-0.049183
-0.048365
-0.047530
-0.046680
-0.045816
-0.044939
-0.044050
-0.043148
-0.042240
-0.041323
-0.040399
-0.039469
-0.038534
-0.037595
-0.036648
-0.035704
-0.034757
-0.033810
-0.032864
-0.031918
-0.030975
-0.030030
-0.029093
-0.028160
-0.027231
-0.026308
-0.025161
-0.024253
-0.023352
-0.022459
-0.021574
-0.020695
-0.019829
-0.018973
-0.018128
-0.017293
-0.016469
-0.015657
-0.014854
-0.014066
-0.013291
-0.012528
-0.011778
-0.011042
-0.010320
-0.009608
-0.008913
-0.008232
-0.007566
-0.006913
-0.006276
-0.005653
-0.005042
-0.004448
-0.003869
-0.003305
-0.002620
-0.002090
-0.001574
-0.001073
-0.000588
-0.000116
0.018567
0.042686
0.066009
0.088709
0.110448
0.131406
0.151589
0.171006
0.189661
0.207564
0.224723
0.241145
0.256840
0.271817
0.286085
0.299654
0.312535
0.324828
0.336359
0.347232
0.357461
0.367056
0.378191
0.386401
0.394015
0.401046
0.407506
0.413406
0.418761
0.423581
0.427880
0.431670
0.434964
0.437775
0.440132
0.442011
0.443446
0.444448
0.445031
0.445208
0.444990
0.444391
0.443423
0.442098
0.440430
0.438430
0.436110
0.433482
0.430536
0.427327
0.423846
0.420105
0.415073
0.410787
0.406278
0.401557
0.396633
0.391519
0.386224
0.380758
0.375133
0.369357
0.363441
0.357393
0.351224
0.344895
0.338510
0.332030
0.325465
0.318822
0.312111
0.305338
0.298512
0.291640
0.284730
0.277789
0.270824
0.263842
0.256850
0.249800
0.242806
0.234116
0.227095
0.220149
0.213230
0.206342
0.199491
0.192681
0.185918
0.179205
0.172547
0.165949
0.159413
0.152944
0.146545
0.140219
0.133923
0.127755
0.121669
0.115669
0.109756
0.103934
0.098205
0.092570
0.087032
0.081592
0.076252
0.071014
0.065879
0.060848
0.054697
0.049905
0.045219
0.040607
0.036139
0.031781
0.027531
0.023391
0.019362
0.015442
0.011632
0.007932
0.004341
0.000860
-0.002513
-0.005777
-0.008933
-0.012005
-0.014947
-0.017784
-0.020515
-0.023143
-0.025668
-0.028091
-0.030413
-0.032635
-0.034760
-0.036786
-0.038717
-0.041002
-0.042722
-0.044350
-0.045889
-0.047339
-0.048712
-0.049989
-0.051183
-0.052294
-0.053324
-0.054276
-0.055150
-0.055948
-0.056673
-0.057325
-0.057907
-0.058420
-0.058866
-0.059246
-0.059565
-0.059820
-0.060014
-0.060150
-0.060228
-0.060252
-0.060223
-0.060142
-0.060011
-0.059832
-0.059542
-0.059260
-0.058935
-0.058569
-0.058164
-0.057721
-0.057241
-0.056722
-0.056174
-0.055594
-0.054984
-0.054345
-0.053678
-0.052986
-0.052270
-0.051530
-0.050769
-0.049987
-0.049186
-0.048368
-0.047533
-0.046676
-0.045812
-0.044935
-0.044047
-0.043148
-0.042240
-0.041323
-0.040399
-0.039234
-0.038298
-0.037357
-0.036414
-0.035469
-0.034522
-0.033576
-0.032629
-0.031684
-0.030734
-0.029794
-0.028857
-0.027925
-0.026998
-0.026077
-0.025161
-0.024253
-0.023352
-0.022459
-0.021574
-0.020699
-0.019833
-0.018977
-0.018125
-0.017290
-0.016466
-0.015654
-0.014854
-0.014066
-0.013097
-0.012338
-0.011592
-0.010859
-0.010140
-0.009434
-0.008743
-0.008066
-0.007403
-0.006754
-0.006120
-0.005496
-0.004891
-0.004301
-0.003726
-0.003166
-0.002620
-0.002090
-0.001574
-0.001073
-0.000588
-0.000116
0.018567
0.042686
0.066009
0.088709
0.110448
0.131406
0.156553
0.175776
0.194242
0.211957
0.228929
0.245167
0.260680
0.275477
0.289569
0.302964
0.315673
0.327706
0.339075
0.349790
0.359937
0.369374
0.378191
0.386401
0.394015
0.401046
0.407506
0.413406
0.418761
0.423581
0.427880
0.431670
0.434964
0.437775
0.440132
0.442402
0.443730
0.444634
0.445114
0.445190
0.444875
0.444181
0.443122
0.441710
0.439957
0.437875
0.435476
0.432773
0.429778
0.426501
0.422956
0.419123
0.415073
0.410787
0.406278
0.401557
0.396633
0.391519
0.386224
0.380758
0.375133
0.369357
0.363441
0.357393
0.349652
0.343344
0.336935
0.330434
0.323799
0.317138
0.310410
0.303623
0.296785
0.289903
0.282984
0.276037
0.269067
0.262082
0.255088
0.248091
0.241099
0.234116
0.227095
0.220149
0.213230
0.206342
0.199491
0.192681
0.185918
0.179205
0.172547
0.165949
0.159413
0.151325
0.144944
0.138638
0.132409
0.126260
0.120195
0.114171
0.108281
0.102482
0.096777
0.091166
0.085652
0.080238
0.074923
0.069711
0.064601
0.059597
0.054697
0.049905
0.045219
0.040607
0.036139
0.031781
0.027531
0.023391
0.019362
0.015442
0.011632
0.007932
0.004341
-0.000000
-0.003345
-0.006582
-0.009712
-0.012734
-0.015650
-0.018461
-0.021187
-0.023789
-0.026288
-0.028685
-0.030982
-0.033180
-0.035279
-0.037282
-0.039189
-0.041002
-0.042722
-0.044350
-0.045889
-0.047339
-0.048712
-0.049989
-0.051183
-0.052294
-0.053324
-0.054276
-0.055150
-0.056138
-0.056844
-0.057479
-0.058043
-0.058539
-0.058968
-0.059332
-0.059633
-0.059873
-0.060052
-0.060175
-0.060240
-0.060250
-0.060207
-0.060113
-0.059970
-0.059779
-0.059542
-0.059260
-0.058935
-0.058569
-0.058164
-0.057721
-0.057241
-0.056722
-0.056174
-0.055594
-0.054984
-0.054345
-0.053507
-0.052808
-0.052086
-0.051340
-0.050574
-0.049787
-0.048982
-0.048159
-0.047320
-0.046467
-0.045599
-0.044719
-0.043821
-0.042920
-0.042009
-0.041091
-0.040165
-0.039234
-0.038298
-0.037357
-0.036414
-0.035469
-0.034522
-0.033576
-0.032629
-0.031684
-0.030734
-0.029794
-0.028857
-0.027925
-0.026765
-0.025845
-0.024932
-0.024025
-0.023126
-0.022235
-0.021353
-0.020480
-0.019616
-0.018763
-0.017920
-0.017087
-0.016267
-0.015451
-0.014654
-0.013869
-0.013097
-0.012338
-0.011592
-0.010859
-0.010140
-0.009434
-0.008743
-0.008066
-0.007403
-0.006754
-0.006120
-0.005496
-0.004745
-0.004159
-0.003588
-0.003027
-0.002485
-0.001959
-0.001447
-0.000950
-0.000467
-0.000000
0.024718
0.048636
0.071759
0.094092
0.115639
0.136407
0.156553
0.175776
0.194242
0.211957
0.228929
0.245167
0.260680
0.275477
0.289569
0.302964
0.315673
0.327706
0.339075
0.352388
0.362300
0.371584
0.380252
0.388316
0.395841
0.402727
0.409044
0.414806
0.420025
0.424712
0.428882
0.432546
0.435717
0.438409
0.440633
0.442402
0.443730
0.444634
0.445114
0.445190
0.444875
0.444181
0.443122
0.441710
0.439957
0.437875
0.435476
0.432773
0.428978
0.425633
0.422022
0.418156
0.414047
0.409706
0.405144
0.400335
0.395363
0.390202
0.384863
0.379356
0.373692
0.367879
0.361929
0.355850
0.349652
0.343344
0.336935
0.330434
0.323799
0.317138
0.310410
0.303623
0.296785
0.289903
0.282984
0.276037
0.269067
0.260321
0.253325
0.246329
0.239339
0.232359
0.225396
0.218456
0.211544
0.204665
0.197771
0.190973
0.184222
0.177523
0.170879
0.164296
0.157777
0.151325
0.144944
0.138638
0.132409
0.126260
0.120195
0.114171
0.108281
0.102482
0.096777
0.091166
0.085652
0.080238
0.074923
0.068414
0.063331
0.058353
0.053480
0.048714
0.044056
0.039506
0.035065
0.030732
0.026510
0.022366
0.018364
0.014472
0.010689
0.007017
0.003454
-0.000000
-0.003345
-0.006582
-0.009712
-0.012734
-0.015650
-0.018461
-0.021187
-0.023789
-0.026288
-0.028685
-0.030982
-0.033718
-0.035793
-0.037771
-0.039654
-0.041444
-0.043140
-0.044746
-0.046262
-0.047690
-0.049032
-0.050288
-0.051462
-0.052553
-0.053571
-0.054503
-0.055358
-0.056138
-0.056844
-0.057479
-0.058043
-0.058539
-0.058968
-0.059332
-0.059633
-0.059873
-0.060052
-0.060175
-0.060240
-0.060250
-0.060189
-0.060082
-0.059926
-0.059723
-0.059475
-0.059182
-0.058847
-0.058471
-0.058056
-0.057603
-0.057114
-0.056591
-0.056035
-0.055448
-0.054830
-0.054179
-0.053507
-0.052808
-0.052086
-0.051340
-0.050574
-0.049787
-0.048982
-0.048159
-0.047320
-0.046467
-0.045599
-0.044719
-0.043821
-0.042698
-0.041786
-0.040865
-0.039931
-0.038999
-0.038061
-0.037120
-0.036176
-0.035231
-0.034284
-0.033337
-0.032391
-0.031446
-0.030504
-0.029565
-0.028629
-0.027698
-0.026765
-0.025845
-0.024932
-0.024025
-0.023126
-0.022235
-0.021353
-0.020480
-0.019616
-0.018763
-0.017920
-0.017087
-0.016062
-0.015256
-0.014461
-0.013680
-0.012911
-0.012149
-0.011406
-0.010677
-0.009961
-0.009259
-0.008571
-0.007897
-0.007238
-0.006593
-0.005962
-0.005347
-0.004745
-0.004159
-0.003588
-0.003027
-0.002485
-0.001959
-0.001447
-0.000950
-0.000467
-0.000000
0.024718
0.048636
0.071759
0.099593
0.120944
0.141517
0.161319
0.180357
0.198638
0.216171
0.233088
0.249143
0.264475
0.279093
0.293008
0.306229
0.318767
0.330632
0.341835
0.352388
0.362300
0.371584
0.380252
0.388316
0.395841
0.402727
0.409044
0.414806
0.420025
0.424712
0.428882
0.432546
0.436440
0.439012
0.441121
0.442778
0.443996
0.444789
0.445169
0.445148
0.444740
0.443949
0.442799
0.441300
0.439463
0.437300
0.434824
0.432046
0.428978
0.425633
0.422022
0.418156
0.414047
0.409706
0.405144
0.400335
0.395363
0.390202
0.384863
0.379356
0.373692
0.366393
0.360410
0.354300
0.348073
0.341739
0.335306
0.328783
0.322178
0.315500
0.308757
0.301957
0.295055
0.288163
0.281236
0.274283
0.267309
0.260321
0.253325
0.246329
0.239339
0.232359
0.225396
0.218456
0.211544
0.204665
0.197771
0.190973
0.184222
0.177523
0.170879
0.162648
0.156145
0.149711
0.143348
0.137061
0.130852
0.124725
0.118681
0.112724
0.106856
0.101080
0.095397
0.089768
0.084279
0.078889
0.073600
0.068414
0.063331
0.058353
0.053480
0.048714
0.044056
0.039506
0.035065
0.030732
0.026510
0.022366
0.018364
0.013538
0.009754
0.006109
0.002574
-0.000853
-0.004171
-0.007381
-0.010483
-0.013478
-0.016368
-0.019152
-0.021832
-0.024409
-0.026883
-0.029256
-0.031545
-0.033718
-0.035793
-0.037771
-0.039654
-0.041444
-0.043140
-0.044746
-0.046262
-0.047690
-0.049032
-0.050288
-0.051462
-0.052553
-0.053806
-0.054719
-0.055555
-0.056323
-0.057011
-0.057627
-0.058174
-0.058653
-0.059066
-0.059414
-0.059699
-0.059923
-0.060088
-0.060196
-0.060247
-0.060244
-0.060189
-0.060082
-0.059926
-0.059723
-0.059475
-0.059182
-0.058847
-0.058471
-0.058056
-0.057603
-0.057114
-0.056591
-0.056035
-0.055448
-0.054670
-0.054018
-0.053338
-0.052634
-0.051900
-0.051149
-0.050377
-0.049586
-0.048776
-0.047949
-0.047107
-0.046249
-0.045379
-0.044496
-0.043602
-0.042698
-0.041786
-0.040865
-0.039931
-0.038999
-0.038061
-0.037120
-0.036176
-0.035231
-0.034284
-0.033337
-0.032391
-0.031446
-0.030267
-0.029329
-0.028394
-0.027465
-0.026540
-0.025622
-0.024710
-0.023798
-0.022901
-0.022012
-0.021132
-0.020261
-0.019400
-0.018549
-0.017709
-0.016880
-0.016062
-0.015256
-0.014461
-0.013680
-0.012911
-0.012149
-0.011406
-0.010677
-0.009961
-0.009259
-0.008571
-0.007897
-0.007238
-0.006593
-0.005806
-0.005194
-0.004596
-0.004014
-0.003446
-0.002893
-0.002355
-0.001832
-0.001320
-0.000827
-0.000348
0.006302
0.030818
0.054536
0.077459
0.099593
0.120944
0.141517
0.161319
0.180357
0.198638
0.216171
0.233088
0.249143
0.264475
0.279093
0.293008
0.306229
0.321819
0.333516
0.344554
0.354944
0.364698
0.373826
0.382340
0.390253
0.397576
0.404322
0.410503
0.416171
0.421255
0.425811
0.429852
0.433391
0.436440
0.439012
0.441121
0.442778
0.443996
0.444789
0.445169
0.445148
0.444740
0.443949
0.442799
0.441300
0.439463
0.436705
0.434152
0.431300
0.428161
0.424748
0.421072
0.417143
0.412975
0.408577
0.403961
0.399138
0.394119
0.388914
0.383491
0.377944
0.372241
0.366393
0.360410
0.354300
0.348073
0.341739
0.335306
0.328783
0.322178
0.315500
0.308757
0.301957
0.295055
0.288163
0.281236
0.272528
0.265549
0.258559
0.251563
0.244568
0.237579
0.230603
0.223646
0.216712
0.209808
0.202937
0.196106
0.189319
0.182581
0.175844
0.169215
0.162648
0.156145
0.149711
0.143348
0.137061
0.130852
0.124725
0.118681
0.112724
0.106856
0.101080
0.095397
0.089768
0.082953
0.077588
0.072284
0.067124
0.062067
0.057115
0.052269
0.047531
0.042900
0.038377
0.033963
0.029658
0.025463
0.021378
0.017403
0.013538
0.009754
0.006109
0.002574
-0.000853
-0.004171
-0.007381
-0.010483
-0.013478
-0.016368
-0.019152
-0.021832
-0.024409
-0.027490
-0.029837
-0.032085
-0.034234
-0.036285
-0.038254
-0.040114
-0.041880
-0.043553
-0.045137
-0.046630
-0.048036
-0.049356
-0.050592
-0.051744
-0.052815
-0.053806
-0.054719
-0.055555
-0.056323
-0.057011
-0.057627
-0.058174
-0.058653
-0.059066
-0.059414
-0.059699
-0.059923
-0.060088
-0.060196
-0.060251
-0.060235
-0.060167
-0.060048
-0.059881
-0.059667
-0.059405
-0.059102
-0.058756
-0.058370
-0.057945
-0.057483
-0.056986
-0.056454
-0.055890
-0.055295
-0.054670
-0.054018
-0.053338
-0.052634
-0.051900
-0.051149
-0.050377
-0.049586
-0.048776
-0.047949
-0.047107
-0.046249
-0.045157
-0.044272
-0.043375
-0.042469
-0.041555
-0.040632
-0.039704
-0.038770
-0.037832
-0.036883
-0.035938
-0.034992
-0.034045
-0.033099
-0.032153
-0.031209
-0.030267
-0.029329
-0.028394
-0.027465
-0.026540
-0.025622
-0.024710
-0.023798
-0.022901
-0.022012
-0.021132
-0.020261
-0.019400
-0.018549
-0.017499
-0.016673
-0.015858
-0.015054
-0.014263
-0.013485
-0.012719
-0.011966
-0.011226
-0.010500
-0.009783
-0.009084
-0.008400
-0.007730
-0.007074
-0.006433
-0.005806
-0.005194
-0.004596
-0.004014
-0.003446
-0.002893
-0.002355
-0.001832
-0.001320
-0.000827
-0.000348
0.006302
0.030818
0.060385
0.083109
0.105045
0.126199
0.146578
0.166186
0.185033
0.203125
0.220470
0.237077
0.252954
0.268111
0.282664
0.296404
0.309452
0.321819
0.333516
0.344554
0.354944
0.364698
0.373826
0.382340
0.390253
0.397576
0.404322
0.410503
0.416171
0.421255
0.426845
0.430790
0.434205
0.437132
0.439587
0.441580
0.443126
0.444236
0.444923
0.445201
0.445081
0.444577
0.443701
0.442465
0.440882
0.438948
0.436705
0.434152
0.431300
0.428161
0.424748
0.421072
0.417143
0.412975
0.408577
0.403961
0.399138
0.394119
0.388914
0.383491
0.376565
0.370826
0.364898
0.358882
0.352742
0.346488
0.340128
0.333671
0.327126
0.320503
0.313807
0.307049
0.300236
0.293375
0.286474
0.279540
0.272528
0.265549
0.258559
0.251563
0.244568
0.237579
0.230603
0.223646
0.216712
0.209808
0.202937
0.196106
0.189319
0.180891
0.174219
0.167605
0.161053
0.154518
0.148101
0.141757
0.135490
0.129301
0.123194
0.117172
0.111237
0.105392
0.099639
0.093981
0.088418
0.082953
0.077588
0.072284
0.067124
0.062067
0.057115
0.052269
0.047531
0.042900
0.038377
0.033963
0.029658
0.025463
0.020366
0.016419
0.012581
0.008854
0.005235
0.001727
-0.001699
-0.004990
-0.008172
-0.011248
-0.014216
-0.017079
-0.019837
-0.022491
-0.025042
-0.027490
-0.029837
-0.032085
-0.034234
-0.036285
-0.038254
-0.040114
-0.041880
-0.043553
-0.045137
-0.046630
-0.048036
-0.049356
-0.050592
-0.052021
-0.053072
-0.054043
-0.054937
-0.055754
-0.056497
-0.057168
-0.057767
-0.058301
-0.058763
-0.059159
-0.059492
-0.059761
-0.059971
-0.060121
-0.060214
-0.060251
-0.060235
-0.060167
-0.060048
-0.059881
-0.059667
-0.059405
-0.059102
-0.058756
-0.058370
-0.057945
-0.057483
-0.056986
-0.056315
-0.055743
-0.055140
-0.054508
-0.053849
-0.053163
-0.052452
-0.051718
-0.050962
-0.050186
-0.049384
-0.048569
-0.047738
-0.046892
-0.046031
-0.045157
-0.044272
-0.043375
-0.042469
-0.041555
-0.040632
-0.039704
-0.038770
-0.037832
-0.036883
-0.035938
-0.034992
-0.034045
-0.033099
-0.032153
-0.030971
-0.030030
-0.029093
-0.028160
-0.027231
-0.026308
-0.025391
-0.024481
-0.023578
-0.022683
-0.021796
-0.020912
-0.020043
-0.019185
-0.018337
-0.017499
-0.016673
-0.015858
-0.015054
-0.014263
-0.013485
-0.012719
-0.011966
-0.011226
-0.010500
-0.009783
-0.009084
-0.008400
-0.007563
-0.006911
-0.006273
-0.005650
-0.005042
-0.004448
-0.003869
-0.003305
-0.002756
-0.002222
-0.001703
-0.001198
-0.000709
-0.000234
0.012553
0.036868
0.060385
0.083109
0.105045
0.126199
0.146578
0.166186
0.185033
0.203125
0.220470
0.237077
0.252954
0.268111
0.282664
0.296404
0.312535
0.324828
0.336359
0.347232
0.357461
0.367056
0.376028
0.384390
0.392153
0.399329
0.405932
0.411972
0.417463
0.422416
0.426845
0.430790
0.434205
0.437132
0.439587
0.441580
0.443126
0.444236
0.444923
0.445201
0.445081
0.444577
0.443701
0.442465
0.440882
0.438430
0.436110
0.433482
0.430536
0.427327
0.423846
0.420105
0.416116
0.411888
0.407435
0.402766
0.397892
0.392825
0.387574
0.382151
0.376565
0.370826
0.364898
0.358882
0.352742
0.346488
0.340128
0.333671
0.327126
0.320503
0.313807
0.307049
0.300236
0.293375
0.284730
0.277789
0.270824
0.263842
0.256850
0.249800
0.242806
0.235820
0.228849
0.221897
0.214970
0.208074
0.201213
0.194392
0.187617
0.180891
0.174219
0.167605
0.161053
0.154518
0.148101
0.141757
0.135490
0.129301
0.123194
0.117172
0.111237
0.105392
0.099639
0.092570
0.087032
0.081592
0.076252
0.071014
0.065879
0.060848
0.055884
0.051066
0.046354
0.041750
0.037255
0.032868
0.028591
0.024424
0.020366
0.016419
0.012581
0.008854
0.005235
0.001727
-0.001699
-0.004990
-0.008172
-0.011248
-0.014216
-0.017079
-0.019837
-0.022491
-0.025668
-0.028091
-0.030413
-0.032635
-0.034760
-0.036786
-0.038717
-0.040554
-0.042297
-0.043961
-0.045521
-0.046993
-0.048377
-0.049676
-0.050890
-0.052021
-0.053072
-0.054043
-0.054937
-0.055754
-0.056497
-0.057168
-0.057767
-0.058301
-0.058763
-0.059159
-0.059492
-0.059761
-0.060014
-0.060150
-0.060228
-0.060252
-0.060223
-0.060142
-0.060011
-0.059832
-0.059606
-0.059335
-0.059021
-0.058665
-0.058267
-0.057832
-0.057361
-0.056855
-0.056315
-0.055743
-0.055140
-0.054508
-0.053849
-0.053163
-0.052452
-0.051718
-0.050962
-0.050186
-0.049384
-0.048569
-0.047738
-0.046892
-0.045812
-0.044935
-0.044047
-0.043148
-0.042240
-0.041323
-0.040399
-0.039469
-0.038534
-0.037595
-0.036652
-0.035707
-0.034761
-0.033807
-0.032860
-0.031915
-0.030971
-0.030030
-0.029093
-0.028160
-0.027231
-0.026308
-0.025391
-0.024481
-0.023578
-0.022683
-0.021796
-0.020912
-0.020043
-0.018977
-0.018125
-0.017290
-0.016466
-0.015451
-0.014654
-0.013869
-0.013097
-0.012338
-0.011406
-0.010677
-0.009961
-0.009259
-0.008571
-0.007897
-0.007238
-0.006593
-0.005962
-0.005347
-0.004745
-0.004159
-0.003588
-0.003027
-0.002485
-0.001959
-0.001447
-0.000950
-0.000467
0.000000
0.024718
0.048636
0.071759
0.094092
0.115639
0.136407
0.156553
0.175776
0.194242
0.216171
0.233088
0.249143
0.264475
0.279093
0.293008
0.306229
0.318767
0.330632
0.341835
0.352388
0.362300
0.371584
0.380252
0.388316
0.395841
0.402727
0.409044
0.414806
0.420025
0.424712
0.428882
0.432546
0.435717
0.438409
0.440633
0.442402
0.443996
0.444789
0.445169
0.445148
0.444740
0.443949
0.442799
0.441300
0.439463
0.437300
0.434824
0.432046
0.428978
0.425633
0.422022
0.418156
0.414047
0.409706
0.405144
0.400335
0.395363
0.390202
0.384863
0.379356
0.373692
0.367879
0.361929
0.355850
0.348073
0.341739
0.335306
0.328783
0.322178
0.315500
0.308757
0.301957
0.295055
0.288163
0.281236
0.274283
0.267309
0.260321
0.253325
0.246329
0.239339
0.232359
0.225396
0.218456
0.211544
0.204665
0.197771
0.190973
0.184222
0.177523
0.170879
0.164296
0.156145
0.149711
0.143348
0.137061
0.130852
0.124725
0.118681
0.112724
0.106856
0.101080
0.095397
0.089768
0.084279
0.078889
0.073600
0.068414
0.063331
0.058353
0.053480
0.048714
0.044056
0.039506
0.035065
0.030732
0.026510
0.022366
0.018364
0.014472
0.009754
0.006109
0.002574
-0.000853
-0.004171
-0.007381
-0.010483
-0.013478
-0.016368
-0.019152
-0.021832
-0.024409
-0.026883
-0.029256
-0.031545
-0.033718
-0.035793
-0.037771
-0.039654
-0.041444
-0.043140
-0.044746
-0.046262
-0.047690
-0.049032
-0.050288
-0.051462
-0.052553
-0.053806
-0.054719
-0.055555
-0.056323
-0.057011
-0.057627
-0.058174
-0.058653
-0.059066
-0.059414
-0.059699
-0.059923
-0.060088
-0.060196
-0.060247
-0.060244
-0.060189
-0.060082
-0.059926
-0.059723
-0.059475
-0.059182
-0.058847
-0.058471
-0.058056
-0.057603
-0.057114
-0.056591
-0.055890
-0.055295
-0.054670
-0.054018
-0.053338
-0.052634
-0.051900
-0.051149
-0.050377
-0.049586
-0.048776
-0.047949
-0.047107
-0.046249
-0.045379
-0.044496
-0.043602
-0.042698
-0.041786
-0.040865
-0.039931
-0.038999
-0.038061
-0.037120
-0.036176
-0.035231
-0.034284
-0.033099
-0.032153
-0.031209
-0.030267
-0.029329
-0.028394
-0.027465
-0.026540
-0.025622
-0.024710
-0.023798
-0.022901
-0.022012
-0.021132
-0.020261
-0.019400
-0.018549
-0.017709
-0.016880
-0.016062
-0.015256
-0.014461
-0.013680
-0.012911
-0.012149
-0.011406
-0.010677
-0.009961
-0.009084
-0.008400
-0.007730
-0.007074
-0.006433
-0.005806
-0.005194
-0.004596
-0.004014
-0.003446
-0.002893
-0.002355
-0.001832
-0.001320
-0.000827
-0.000348
0.006302
0.030818
0.054536
0.077459
0.099593
0.120944
0.141517
0.161319
0.180357
0.198638
0.216171
0.233088
0.252954
0.268111
0.282664
0.296404
0.309452
0.321819
0.333516
0.344554
0.354944
0.364698
0.373826
0.382340
0.390253
0.397576
0.404322
0.410503
0.416171
0.421255
0.425811
0.429852
0.433391
0.436440
0.439012
0.441121
0.442778
0.443996
0.444789
0.445169
0.445081
0.444577
0.443701
0.442465
0.440882
0.438948
0.436705
0.434152
0.431300
0.428161
0.424748
0.421072
0.417143
0.412975
0.408577
0.403961
0.399138
0.394119
0.388914
0.383491
0.377944
0.372241
0.366393
0.360410
0.354300
0.348073
0.341739
0.335306
0.327126
0.320503
0.313807
0.307049
0.300236
0.293375
0.286474
0.279540
0.272528
0.265549
0.258559
0.251563
0.244568
0.237579
0.230603
0.223646
0.216712
0.209808
0.202937
0.196106
0.189319
0.182581
0.175844
0.169215
0.162648
0.156145
0.149711
0.141757
0.135490
0.129301
0.123194
0.117172
0.111237
0.105392
0.099639
0.093981
0.088418
0.082953
0.077588
0.072284
0.067124
0.062067
0.057115
0.052269
0.047531
0.042900
0.038377
0.033963
0.029658
0.025463
0.021378
0.017403
0.013538
0.009754
0.006109
0.002574
-0.001699
-0.004990
-0.008172
-0.011248
-0.014216
-0.017079
-0.019837
-0.022491
-0.025042
-0.027490
-0.029837
-0.032085
-0.034234
-0.036285
-0.038254
-0.040114
-0.041880
-0.043553
-0.045137
-0.046630
-0.048036
-0.049356
-0.050592
-0.051744
-0.052815
-0.053806
-0.054719
-0.055754
-0.056497
-0.057168
-0.057767
-0.058301
-0.058763
-0.059159
-0.059492
-0.059761
-0.059971
-0.060121
-0.060214
-0.060251
-0.060235
-0.060167
-0.060048
-0.059881
-0.059667
-0.059405
-0.059102
-0.058756
-0.058370
-0.057945
-0.057483
-0.056986
-0.056454
-0.055890
-0.055295
-0.054508
-0.053849
-0.053163
-0.052452
-0.051718
-0.050962
-0.050186
-0.049384
-0.048569
-0.047738
-0.046892
-0.046031
-0.045157
-0.044272
-0.043375
-0.042469
-0.041555
-0.040632
-0.039704
-0.038770
-0.037832
-0.036883
-0.035938
-0.034992
-0.034045
-0.033099
-0.032153
-0.031209
-0.030267
-0.029093
-0.028160
-0.027231
-0.026308
-0.025391
-0.024481
-0.023578
-0.022683
-0.021796
-0.020912
-0.020043
-0.019185
-0.018337
-0.017499
-0.016673
-0.015858
-0.015054
-0.014263
-0.013485
-0.012719
-0.011966
-0.011226
-0.010500
-0.009783
-0.009084
-0.008400
-0.007730
-0.007074
-0.006273
-0.005650
-0.005042
-0.004448
-0.003869
-0.003305
-0.002756
-0.002222
-0.001703
-0.001198
-0.000709
-0.000234
0.012553
0.036868
0.060385
0.083109
0.105045
0.126199
0.146578
0.166186
0.185033
0.203125
0.220470
0.237077
0.252954
0.268111
0.286085
0.299654
0.312535
0.324828
0.336359
0.347232
0.357461
0.367056
0.376028
0.384390
0.392153
0.399329
0.405932
0.411972
0.417463
0.422416
0.426845
0.430790
0.434205
0.437132
0.439587
0.441580
0.443126
0.444236
0.444923
0.445201
0.445081
0.444577
0.443423
0.442098
0.440430
0.438430
0.436110
0.433482
0.430536
0.427327
0.423846
0.420105
0.416116
0.411888
0.407435
0.402766
0.397892
0.392825
0.387574
0.382151
0.376565
0.370826
0.364898
0.358882
0.352742
0.346488
0.340128
0.333671
0.327126
0.320503
0.312111
0.305338
0.298512
0.291640
0.284730
0.277789
0.270824
0.263842
0.256850
0.249800
0.242806
0.235820
0.228849
0.221897
0.214970
0.208074
0.201213
0.194392
0.187617
0.180891
0.174219
0.167605
0.161053
0.154518
0.148101
0.141757
0.135490
0.127755
0.121669
0.115669
0.109756
0.103934
0.098205
0.092570
0.087032
0.081592
0.076252
0.071014
0.065879
0.060848
0.055884
0.051066
0.046354
0.041750
0.037255
0.032868
0.028591
0.024424
0.020366
0.016419
0.012581
0.008854
0.005235
0.001727
-0.001699
-0.004990
-0.008933
-0.012005
-0.014947
-0.017784
-0.020515
-0.023143
-0.025668
-0.028091
-0.030413
-0.032635
-0.034760
-0.036786
-0.038717
-0.040554
-0.042297
-0.043961
-0.045521
-0.046993
-0.048377
-0.049676
-0.050890
-0.052021
-0.053072
-0.054043
-0.054937
-0.055754
-0.056497
-0.057168
-0.057907
-0.058420
-0.058866
-0.059246
-0.059565
-0.059820
-0.060014
-0.060150
-0.060228
-0.060252
-0.060223
-0.060142
-0.060011
-0.059832
-0.059606
-0.059335
-0.059021
-0.058665
-0.058267
-0.057832
-0.057361
-0.056855
-0.056315
-0.055743
-0.055140
-0.054508
-0.053849
-0.053163
-0.052452
-0.051530
-0.050769
-0.049987
-0.049186
-0.048368
-0.047533
-0.046676
-0.045812
-0.044935
-0.044047
-0.043148
-0.042240
-0.041323
-0.040399
-0.039469
-0.038534
-0.037595
-0.036652
-0.035707
-0.034761
-0.033807
-0.032860
-0.031915
-0.030971
-0.030030
-0.029093
-0.028160
-0.027231
-0.026077
-0.025161
-0.024253
-0.023352
-0.022459
-0.021574
-0.020699
-0.019833
-0.018977
-0.018125
-0.017290
-0.016466
-0.015654
-0.014854
-0.014066
-0.013291
-0.012528
-0.011778
-0.011042
-0.010320
-0.009611
-0.008916
-0.008235
-0.007563
-0.006911
-0.006273
-0.005650
-0.005042
-0.004301
-0.003726
-0.003166
-0.002620
-0.002090
-0.001574
-0.001073
-0.000588
-0.000116
0.018567
0.042686
0.066009
0.088709
0.110448
0.131406
0.151589
0.171006
0.189661
0.207564
0.224723
0.241145
0.256840
0.271817
0.286085
0.299654
0.312535
0.324828
0.336359
0.349790
0.359937
0.369374
0.378191
0.386401
0.394015
0.401046
0.407506
0.413406
0.418761
0.423581
0.427880
0.431670
0.434964
0.437775
0.440132
0.442011
0.443446
0.444448
0.445031
0.445208
0.444990
0.444391
0.443423
0.442098
0.440430
0.438430
0.436110
0.433482
0.429778
0.426501
0.422956
0.419123
0.415073
0.410787
0.406278
0.401557
0.396633
0.391519
0.386224
0.380758
0.375133
0.369357
0.363441
0.357393
0.351224
0.344895
0.338510
0.332030
0.325465
0.318822
0.312111
0.305338
0.298512
0.291640
0.284730
0.277789
0.269067
0.262082
0.255088
0.248091
0.241099
0.234116
0.227095
0.220149
0.213230
0.206342
0.199491
0.192681
0.185918
0.179205
0.172547
0.165949
0.159413
0.152944
0.146545
0.140219
0.133923
0.127755
0.121669
0.115669
0.109756
0.103934
0.098205
0.092570
0.085652
0.080238
0.074923
0.069711
0.064601
0.059597
0.054697
0.049905
0.045219
0.040607
0.036139
0.031781
0.027531
0.023391
0.019362
0.015442
0.011632
0.007932
0.004341
0.000860
-0.002513
-0.005777
-0.008933
-0.012005
-0.014947
-0.017784
-0.020515
-0.023143
-0.026288
-0.028685
-0.030982
-0.033180
-0.035279
-0.037282
-0.039189
-0.041002
-0.042722
-0.044350
-0.045889
-0.047339
-0.048712
-0.049989
-0.051183
-0.052294
-0.053324
-0.054276
-0.055150
-0.055948
-0.056673
-0.057325
-0.057907
-0.058420
-0.058866
-0.059246
-0.059565
-0.059820
-0.060014
-0.060175
-0.060240
-0.060250
-0.060207
-0.060113
-0.059970
-0.059779
-0.059542
-0.059260
-0.058935
-0.058569
-0.058164
-0.057721
-0.057241
-0.056722
-0.056174
-0.055594
-0.054984
-0.054345
-0.053678
-0.052986
-0.052270
-0.051530
-0.050769
-0.049987
-0.049186
-0.048368
-0.047533
-0.046467
-0.045599
-0.044719
-0.043821
-0.042920
-0.042009
-0.041091
-0.040165
-0.039234
-0.038298
-0.037357
-0.036414
-0.035469
-0.034522
-0.033576
-0.032629
-0.031684
-0.030734
-0.029794
-0.028857
-0.027925
-0.026998
-0.026077
-0.025161
-0.024253
-0.023352
-0.022459
-0.021574
-0.020699
-0.019616
-0.018763
-0.017920
-0.017087
-0.016267
-0.015451
-0.014654
-0.013869
-0.013097
-0.012338
-0.011592
-0.010859
-0.010140
-0.009434
-0.008743
-0.008066
-0.007403
-0.006754
-0.006120
-0.005496
-0.004891
-0.004301
-0.003726
-0.003166
-0.002620
-0.002090
-0.001574
-0.001073
-0.000467
-0.000000
0.024718
0.048636
0.071759
0.094092
0.115639
0.136407
0.156553
0.175776
0.194242
0.211957
0.228929
0.245167
0.260680
0.275477
0.289569
0.302964
0.315673
0.327706
0.339075
0.349790
0.359937
0.369374
0.378191
0.386401
0.394015
0.401046
0.409044
0.414806
0.420025
0.424712
0.428882
0.432546
0.435717
0.438409
0.440633
0.442402
0.443730
0.444634
0.445114
0.445190
0.444875
0.444181
0.443122
0.441710
0.439957
0.437875
0.435476
0.432773
0.429778
0.426501
0.422956
0.419123
0.415073
0.410787
0.405144
0.400335
0.395363
0.390202
0.384863
0.379356
0.373692
0.367879
0.361929
0.355850
0.349652
0.343344
0.336935
0.330434
0.323799
0.317138
0.310410
0.303623
0.296785
0.289903
0.282984
0.276037
0.269067
0.262082
0.255088
0.248091
0.241099
0.234116
0.227095
0.218456
0.211544
0.204665
0.197771
0.190973
0.184222
0.177523
0.170879
0.164296
0.157777
0.151325
0.144944
0.138638
0.132409
0.126260
0.120195
0.114171
0.108281
0.102482
0.096777
0.091166
0.085652
0.080238
0.074923
0.069711
0.064601
0.059597
0.054697
0.048714
0.044056
0.039506
0.035065
0.030732
0.026510
0.022366
0.018364
0.014472
0.010689
0.007017
0.003454
-0.000000
-0.003345
-0.006582
-0.009712
-0.012734
-0.015650
-0.018461
-0.021187
-0.023789
-0.026288
-0.028685
-0.030982
-0.033180
-0.035279
-0.037282
-0.039189
-0.041002
-0.043140
-0.044746
-0.046262
-0.047690
-0.049032
-0.050288
-0.051462
-0.052553
-0.053571
-0.054503
-0.055358
-0.056138
-0.056844
-0.057479
-0.058043
-0.058539
-0.058968
-0.059332
-0.059633
-0.059873
-0.060052
-0.060175
-0.060240
-0.060250
-0.060207
-0.060113
-0.059970
-0.059779
-0.059475
-0.059182
-0.058847
-0.058471
-0.058056
-0.057603
-0.057114
-0.056591
-0.056035
-0.055448
-0.054830
-0.054179
-0.053507
-0.052808
-0.052086
-0.051340
-0.050574
-0.049787
-0.048982
-0.048159
-0.047320
-0.046467
-0.045599
-0.044719
-0.043821
-0.042920
-0.042009
-0.041091
-0.039931
-0.038999
-0.038061
-0.037120
-0.036176
-0.035231
-0.034284
-0.033337
-0.032391
-0.031446
-0.030504
-0.029565
-0.028629
-0.027698
-0.026765
-0.025845
-0.024932
-0.024025
-0.023126
-0.022235
-0.021353
-0.020480
-0.019616
-0.018763
-0.017920
-0.017087
-0.016267
-0.015451
-0.014654
-0.013680
-0.012911
-0.012149
-0.011406
-0.010677
-0.009961
-0.009259
-0.008571
-0.007897
-0.007238
-0.006593
-0.005962
-0.005347
-0.004745
-0.004159
-0.003588
-0.003027
-0.002485
-0.001959
-0.001447
-0.000950
-0.000467
-0.000000
0.024718
0.048636
0.071759
0.094092
0.120944
0.141517
0.161319
0.180357
0.198638
0.216171
0.233088
0.249143
0.264475
0.279093
0.293008
0.306229
0.318767
0.330632
0.341835
0.352388
0.362300
0.371584
0.380252
0.388316
0.395841
0.402727
0.409044
0.414806
0.420025
0.424712
0.428882
0.432546
0.435717
0.439012
0.441121
0.442778
0.443996
0.444789
0.445169
0.445148
0.444740
0.443949
0.442799
0.441300
0.439463
0.437300
0.434824
0.432046
0.428978
0.425633
0.422022
0.418156
0.414047
0.409706
0.405144
0.400335
0.395363
0.390202
0.384863
0.379356
0.373692
0.366393
0.360410
0.354300
0.348073
0.341739
0.335306
0.328783
0.322178
0.315500
0.308757
0.301957
0.295055
0.288163
0.281236
0.274283
0.267309
0.260321
0.253325
0.246329
0.239339
0.232359
0.225396
0.218456
0.211544
0.204665
0.197771
0.190973
0.184222
0.175844
0.169215
0.162648
0.156145
0.149711
0.143348
0.137061
0.130852
0.124725
0.118681
0.112724
0.106856
0.101080
0.095397
0.089768
0.084279
0.078889
0.073600
0.068414
0.063331
0.058353
0.053480
0.048714
0.044056
0.039506
0.035065
0.030732
0.026510
0.022366
0.017403
0.013538
0.009754
0.006109
0.002574
-0.000853
-0.004171
-0.007381
-0.010483
-0.013478
-0.016368
-0.019152
-0.021832
-0.024409
-0.026883
-0.029256
-0.031545
-0.033718
-0.035793
-0.037771
-0.039654
-0.041444
-0.043140
-0.044746
-0.046262
-0.047690
-0.049032
-0.050288
-0.051744
-0.052815
-0.053806
-0.054719
-0.055555
-0.056323
-0.057011
-0.057627
-0.058174
-0.058653
-0.059066
-0.059414
-0.059699
-0.059923
-0.060088
-0.060196
-0.060247
-0.060244
-0.060189
-0.060082
-0.059926
-0.059723
-0.059475
-0.059182
-0.058847
-0.058471
-0.058056
-0.057603
-0.057114
-0.056454
-0.055890
-0.055295
-0.054670
-0.054018
-0.053338
-0.052634
-0.051900
-0.051149
-0.050377
-0.049586
-0.048776
-0.047949
-0.047107
-0.046249
-0.045379
-0.044496
-0.043602
-0.042698
-0.041786
-0.040865
-0.039931
-0.038999
-0.038061
-0.037120
-0.036176
-0.035231
-0.034284
-0.033099
-0.032153
-0.031209
-0.030267
-0.029329
-0.028394
-0.027465
-0.026540
-0.025622
-0.024710
-0.023798
-0.022901
-0.022012
-0.021132
-0.020261
-0.019400
-0.018549
-0.017709
-0.016880
-0.016062
-0.015256
-0.014461
-0.013680
-0.012911
-0.012149
-0.011406
-0.010677
-0.009961
-0.009259
-0.008400
-0.007730
-0.007074
-0.006433
-0.005806
-0.005194
-0.004596
-0.004014
-0.003446
-0.002893
-0.002355
-0.001832
-0.001320
-0.000827
-0.000348
0.006302
0.030818
0.054536
0.077459
0.099593
0.120944
0.141517
0.161319
0.180357
0.198638
0.216171
0.233088
0.249143
0.268111
0.282664
0.296404
0.309452
0.321819
0.333516
0.344554
0.354944
0.364698
0.373826
0.382340
0.390253
0.397576
0.404322
0.410503
0.416171
0.421255
0.425811
0.429852
0.433391
0.436440
0.439012
0.441121
0.442778
0.443996
0.444789
0.445169
0.445148
0.444577
0.443701
0.442465
0.440882
0.438948
0.436705
0.434152
0.431300
0.428161
0.424748
0.421072
0.417143
0.412975
0.408577
0.403961
0.399138
0.394119
0.388914
0.383491
0.377944
0.372241
0.366393
0.360410
0.354300
0.348073
0.341739
0.335306
0.328783
0.322178
0.313807
0.307049
0.300236
0.293375
0.286474
0.279540
0.272528
0.265549
0.258559
0.251563
0.244568
0.237579
0.230603
0.223646
0.216712
0.209808
0.202937
0.196106
0.189319
0.182581
0.175844
0.169215
0.162648
0.156145
0.149711
0.143348
0.137061
0.130852
0.123194
0.117172
0.111237
0.105392
0.099639
0.093981
0.088418
0.082953
0.077588
0.072284
0.067124
0.062067
0.057115
0.052269
0.047531
0.042900
0.038377
0.033963
0.029658
0.025463
0.021378
0.017403
0.013538
0.009754
0.006109
0.002574
-0.000853
-0.004171
-0.008172
-0.011248
-0.014216
-0.017079
-0.019837
-0.022491
-0.025042
-0.027490
-0.029837
-0.032085
-0.034234
-0.036285
-0.038254
-0.040114
-0.041880
-0.043553
-0.045137
-0.046630
-0.048036
-0.049356
-0.050592
-0.051744
-0.052815
-0.053806
-0.054719
-0.055555
-0.056323
-0.057011
-0.057767
-0.058301
-0.058763
-0.059159
-0.059492
-0.059761
-0.059971
-0.060121
-0.060214
-0.060251
-0.060235
-0.060167
-0.060048
-0.059881
-0.059667
-0.059405
-0.059102
-0.058756
-0.058370
-0.057945
-0.057483
-0.056986
-0.056454
-0.055890
-0.055295
-0.054670
-0.054018
-0.053338
-0.052634
-0.051718
-0.050962
-0.050186
-0.049384
-0.048569
-0.047738
-0.046892
-0.046031
-0.045157
-0.044272
-0.043375
-0.042469
-0.041555
-0.040632
-0.039704
-0.038770
-0.037832
-0.036883
-0.035938
-0.034992
-0.034045
-0.033099
-0.032153
-0.031209
-0.030267
-0.029329
-0.028394
-0.027465
-0.026308
-0.025391
-0.024481
-0.023578
-0.022683
-0.021796
-0.020912
-0.020043
-0.019185
-0.018337
-0.017499
-0.016673
-0.015858
-0.015054
-0.014263
-0.013485
-0.012719
-0.011966
-0.011226
-0.010500
-0.009783
-0.009084
-0.008400
-0.007730
-0.007074
-0.006433
-0.005806
-0.005194
-0.004448
-0.003869
-0.003305
-0.002756
-0.002222
-0.001703
-0.001198
-0.000709
-0.000234
0.012553
0.036868
0.060385
0.083109
0.105045
0.126199
0.146578
0.166186
0.185033
0.203125
0.220470
0.237077
0.252954
0.268111
0.282664
0.296404
0.309452
0.321819
0.333516
0.344554
0.357461
0.367056
0.376028
0.384390
0.392153
0.399329
0.405932
0.411972
0.417463
0.422416
0.426845
0.430790
0.434205
0.437132
0.439587
0.441580
0.443126
0.444236
0.444923
0.445201
0.445081
0.444577
0.443701
0.442465
0.440882
0.438948
0.436705
0.434152
0.430536
0.427327
0.423846
0.420105
0.416116
0.411888
0.407435
0.402766
0.397892
0.392825
0.387574
0.382151
0.376565
0.370826
0.364898
0.358882
0.352742
0.346488
0.340128
0.333671
0.327126
0.320503
0.313807
0.307049
0.300236
0.293375
0.286474
0.279540
0.270824
0.263842
0.256850
0.249800
0.242806
0.235820
0.228849
0.221897
0.214970
0.208074
0.201213
0.194392
0.187617
0.180891
0.174219
0.167605
0.161053
0.154518
0.148101
0.141757
0.135490
0.129301
0.123194
0.117172
0.111237
0.105392
0.099639
0.093981
0.088418
0.081592
0.076252
0.071014
0.065879
0.060848
0.055884
0.051066
0.046354
0.041750
0.037255
0.032868
0.028591
0.024424
0.020366
0.016419
0.012581
0.008854
0.005235
0.001727
-0.001699
-0.004990
-0.008172
-0.011248
-0.014216
-0.017079
-0.019837
-0.022491
-0.025042
-0.028091
-0.030413
-0.032635
-0.034760
-0.036786
-0.038717
-0.040554
-0.042297
-0.043961
-0.045521
-0.046993
-0.048377
-0.049676
-0.050890
-0.052021
-0.053072
-0.054043
-0.054937
-0.055754
-0.056497
-0.057168
-0.057767
-0.058301
-0.058763
-0.059159
-0.059492
-0.059761
-0.059971
-0.060121
-0.060228
-0.060252
-0.060223
-0.060142
-0.060011
-0.059832
-0.059606
-0.059335
-0.059021
-0.058665
-0.058267
-0.057832
-0.057361
-0.056855
-0.056315
-0.055743
-0.055140
-0.054508
-0.053849
-0.053163
-0.052452
-0.051718
-0.050962
-0.050186
-0.049384
-0.048569
-0.047738
-0.046892
-0.045812
-0.044935
-0.044047
-0.043148
-0.042240
-0.041323
-0.040399
-0.039469
-0.038534
-0.037595
-0.036652
-0.035707
-0.034761
-0.033807
-0.032860
-0.031915
-0.030971
-0.030030
-0.029093
-0.028160
-0.027231
-0.026308
-0.025391
-0.024481
-0.023578
-0.022683
-0.021796
-0.020912
-0.020043
-0.018977
-0.018125
-0.017290
-0.016466
-0.015654
-0.014854
-0.014066
-0.013291
-0.012528
-0.011778
-0.011042
-0.010320
-0.009611
-0.008916
-0.008235
-0.007563
-0.006911
-0.006273
-0.005650
-0.005042
-0.004448
-0.003869
-0.003305
-0.002756
-0.002222
-0.001703
-0.001198
-0.000709
-0.000234
0.018567
0.042686
0.066009
0.088709
0.110448
0.131406
0.151589
0.171006
0.189661
0.207564
0.224723
0.241145
0.256840
0.271817
0.286085
0.299654
0.312535
0.324828
0.336359
0.347232
0.357461
0.367056
0.376028
0.384390
0.392153
0.399329
0.405932
0.413406
0.418761
0.423581
0.427880
0.431670
0.434964
0.437775
0.440132
0.442011
0.443446
0.444448
0.445031
0.445208
0.444990
0.444391
0.443423
0.442098
0.440430
0.438430
0.436110
0.433482
0.430536
0.427327
0.423846
0.420105
0.416116
0.411888
0.407435
0.401557
0.396633
0.391519
0.386224
0.380758
0.375133
0.369357
0.363441
0.357393
0.351224
0.344895
0.338510
0.332030
0.325465
0.318822
0.312111
0.305338
0.298512
0.291640
0.284730
0.277789
0.270824
0.263842
0.256850
0.249800
0.242806
0.235820
0.228849
0.221897
0.213230
0.206342
0.199491
0.192681
0.185918
0.179205
0.172547
0.165949
0.159413
0.152944
0.146545
0.140219
0.133923
0.127755
0.121669
0.115669
0.109756
0.103934
0.098205
0.092570
0.087032
0.081592
0.076252
0.071014
0.065879
0.060848
0.055884
0.051066
0.045219
0.040607
0.036139
0.031781
0.027531
0.023391
0.019362
0.015442
0.011632
0.007932
0.004341
0.000860
-0.002513
-0.005777
-0.008933
-0.012005
-0.014947
-0.017784
-0.020515
-0.023143
-0.025668
-0.028091
-0.030413
-0.032635
-0.034760
-0.036786
-0.038717
-0.040554
-0.042297
-0.044350
-0.045889
-0.047339
-0.048712
-0.049989
-0.051183
-0.052294
-0.053324
-0.054276
-0.055150
-0.055948
-0.056673
-0.057325
-0.057907
-0.058420
-0.058866
-0.059246
-0.059565
-0.059820
-0.060014
-0.060150
-0.060228
-0.060252
-0.060223
-0.060142
-0.060011
-0.059832
-0.059606
-0.059260
-0.058935
-0.058569
-0.058164
-0.057721
-0.057241
-0.056722
-0.056174
-0.055594
-0.054984
-0.054345
-0.053678
-0.052986
-0.052270
-0.051530
-0.050769
-0.049987
-0.049186
-0.048368
-0.047533
-0.046676
-0.045812
-0.044935
-0.044047
-0.043148
-0.042240
-0.041323
-0.040399
-0.039234
-0.038298
-0.037357
-0.036414
-0.035469
-0.034522
-0.033576
-0.032629
-0.031684
-0.030734
-0.029794
-0.028857
-0.027925
-0.026998
-0.026077
-0.025161
-0.024253
-0.023352
-0.022459
-0.021574
-0.020699
-0.019833
-0.018977
-0.018125
-0.017290
-0.016466
-0.015654
-0.014854
-0.014066
-0.013097
-0.012338
-0.011592
-0.010859
-0.010140
-0.009434
-0.008743
-0.008066
-0.007403
-0.006754
-0.006120
-0.005496
-0.004891
-0.004301
-0.003726
-0.003166
-0.002620
-0.002090
-0.001574
-0.001073
-0.000588
-0.000116
0.018567
0.042686
0.066009
0.088709
0.110448
0.136407
0.156553
0.175776
0.194242
0.211957
0.228929
0.245167
0.260680
0.275477
0.289569
0.302964
0.315673
0.327706
0.339075
0.349790
0.359937
0.369374
0.378191
0.386401
0.394015
0.401046
0.407506
0.413406
0.418761
0.423581
0.427880
0.431670
0.434964
0.438409
0.440633
0.442402
0.443730
0.444634
0.445114
0.445190
0.444875
0.444181
0.443122
0.441710
0.439957
0.437875
0.435476
0.432773
0.429778
0.426501
0.422956
0.419123
0.415073
0.410787
0.406278
0.401557
0.396633
0.391519
0.386224
0.380758
0.375133
0.369357
0.361929
0.355850
0.349652
0.343344
0.336935
0.330434
0.323799
0.317138
0.310410
0.303623
0.296785
0.289903
0.282984
0.276037
0.269067
0.262082
0.255088
0.248091
0.241099
0.234116
0.227095
0.220149
0.213230
0.206342
0.199491
0.192681
0.185918
0.179205
0.170879
0.164296
0.157777
0.151325
0.144944
0.138638
0.132409
0.126260
0.120195
0.114171
0.108281
0.102482
0.096777
0.091166
0.085652
0.080238
0.074923
0.069711
0.064601
0.059597
0.054697
0.049905
0.045219
0.040607
0.036139
0.031781
0.027531
0.023391
0.019362
0.014472
0.010689
0.007017
0.003454
0.000000
-0.003345
-0.006582
-0.009712
-0.012734
-0.015650
-0.018461
-0.021187
-0.023789
-0.026288
-0.028685
-0.030982
-0.033180
-0.035279
-0.037282
-0.039189
-0.041002
-0.042722
-0.044350
-0.045889
-0.047339
-0.048712
-0.049989
-0.051183
-0.052553
-0.053571
-0.054503
-0.055358
-0.056138
-0.056844
-0.057479
-0.058043
-0.058539
-0.058968
-0.059332
-0.059633
-0.059873
-0.060052
-0.060175
-0.060240
-0.060250
-0.060207
-0.060113
-0.059970
-0.059779
-0.059542
-0.059260
-0.058935
-0.058569
-0.058164
-0.057721
-0.057241
-0.056591
-0.056035
-0.055448
-0.054830
-0.054179
-0.053507
-0.052808
-0.052086
-0.051340
-0.050574
-0.049787
-0.048982
-0.048159
-0.047320
-0.046467
-0.045599
-0.044719
-0.043821
-0.042920
-0.042009
-0.041091
-0.040165
-0.039234
-0.038298
-0.037357
-0.036414
-0.035469
-0.034522
-0.033576
-0.032391
-0.031446
-0.030504
-0.029565
-0.028629
-0.027698
-0.026765
-0.025845
-0.024932
-0.024025
-0.023126
-0.022235
-0.021353
-0.020480
-0.019616
-0.018763
-0.017920
-0.017087
-0.016267
-0.015451
-0.014654
-0.013869
-0.013097
-0.012338
-0.011592
-0.010859
-0.010140
-0.009434
-0.008571
-0.007897
-0.007238
-0.006593
-0.005962
-0.005347
-0.004745
-0.004159
-0.003588
-0.003027
-0.002485
-0.001959
-0.001447
-0.000950
-0.000467
0.000000
0.024718
0.048636
0.071759
0.094092
0.115639
0.136407
0.156553
0.175776
0.194242
0.211957
0.228929
0.249143
0.264475
0.279093
0.293008
0.306229
0.318767
0.330632
0.341835
0.352388
0.362300
0.371584
0.380252
0.388316
0.395841
0.402727
0.409044
0.414806
0.420025
0.424712
0.428882
0.432546
0.435717
0.438409
0.440633
0.442402
0.443730
0.444634
0.445114
0.445190
0.444740
0.443949
0.442799
0.441300
0.439463
0.437300
0.434824
0.432046
0.428978
0.425633
0.422022
0.418156
0.414047
0.409706
0.405144
0.400335
0.395363
0.390202
0.384863
0.379356
0.373692
0.367879
0.361929
0.355850
0.349652
0.343344
0.336935
0.330434
0.322178
0.315500
0.308757
0.301957
0.295055
0.288163
0.281236
0.274283
0.267309
0.260321
0.253325
0.246329
0.239339
0.232359
0.225396
0.218456
0.211544
0.204665
0.197771
0.190973
0.184222
0.177523
0.170879
0.164296
0.157777
0.151325
0.144944
0.138638
0.130852
0.124725
0.118681
0.112724
0.106856
0.101080
0.095397
0.089768
0.084279
0.078889
0.073600
0.068414
0.063331
0.058353
0.053480
0.048714
0.044056
0.039506
0.035065
0.030732
0.026510
0.022366
0.018364
0.014472
0.010689
0.007017
0.003454
0.000000
-0.003345
-0.007381
-0.010483
-0.013478
-0.016368
-0.019152
-0.021832
-0.024409
-0.026883
-0.029256
-0.031545
-0.033718
-0.035793
-0.037771
-0.039654
-0.041444
-0.043140
-0.044746
-0.046262
-0.047690
-0.049032
-0.050288
-0.051462
-0.052553
-0.053571
-0.054503
-0.055358
-0.056138
-0.056844
-0.057627
-0.058174
-0.058653
-0.059066
-0.059414
-0.059699
-0.059923
-0.060088
-0.060196
-0.060247
-0.060244
-0.060189
-0.060082
-0.059926
-0.059723
-0.059475
-0.059182
-0.058847
-0.058471
-0.058056
-0.057603
-0.057114
-0.056591
-0.056035
-0.055448
-0.054830
-0.054179
-0.053507
-0.052808
-0.051900
-0.051149
-0.050377
-0.049586
-0.048776
-0.047949
-0.047107
-0.046249
-0.045379
-0.044496
-0.043602
-0.042698
-0.041786
-0.040865
-0.039931
-0.038999
-0.038061
-0.037120
-0.036176
-0.035231
-0.034284
-0.033337
-0.032391
-0.031446
-0.030504
-0.029565
-0.028629
-0.027698
-0.026540
-0.025622
-0.024710
-0.023798
-0.022901
-0.022012
-0.021132
-0.020261
-0.019400
-0.018549
-0.017709
-0.016880
-0.016062
-0.015256
-0.014461
-0.013680
-0.012911
-0.012149
-0.011406
-0.010677
-0.009961
-0.009259
-0.008571
-0.007897
-0.007238
-0.006593
-0.005962
-0.005347
-0.004596
-0.004014
-0.003446
-0.002893
-0.002355
-0.001832
-0.001320
-0.000827
-0.000348
0.006302
0.030818
0.054536
0.077459
0.099593
0.120944
0.141517
0.161319
0.180357
0.198638
0.216171
0.233088
0.249143
0.264475
0.279093
0.293008
0.306229
0.318767
0.330632
0.344554
0.354944
0.364698
0.373826
0.382340
0.390253
0.397576
0.404322
0.410503
0.416171
0.421255
0.425811
0.429852
0.433391
0.436440
0.439012
0.441121
0.442778
0.443996
0.444789
0.445169
0.445148
0.444740
0.443949
0.442799
0.441300
0.439463
0.437300
0.434152
0.431300
0.428161
0.424748
0.421072
0.417143
0.412975
0.408577
0.403961
0.399138
0.394119
0.388914
0.383491
0.377944
0.372241
0.366393
0.360410
0.354300
0.348073
0.341739
0.335306
0.328783
0.322178
0.315500
0.308757
0.301957
0.295055
0.288163
0.279540
0.272528
0.265549
0.258559
0.251563
0.244568
0.237579
0.230603
0.223646
0.216712
0.209808
0.202937
0.196106
0.189319
0.182581
0.175844
0.169215
0.162648
0.156145
0.149711
0.143348
0.137061
0.130852
0.124725
0.118681
0.112724
0.106856
0.101080
0.095397
0.088418
0.082953
0.077588
0.072284
0.067124
0.062067
0.057115
0.052269
0.047531
0.042900
0.038377
0.033963
0.029658
0.025463
0.021378
0.017403
0.013538
0.009754
0.006109
0.002574
-0.000853
-0.004171
-0.007381
-0.010483
-0.013478
-0.016368
-0.019152
-0.021832
-0.025042
-0.027490
-0.029837
-0.032085
-0.034234
-0.036285
-0.038254
-0.040114
-0.041880
-0.043553
-0.045137
-0.046630
-0.048036
-0.049356
-0.050592
-0.051744
-0.052815
-0.053806
-0.054719
-0.055555
-0.056323
-0.057011
-0.057627
-0.058174
-0.058653
-0.059066
-0.059414
-0.059699
-0.059923
-0.060121
-0.060214
-0.060251
-0.060235
-0.060167
-0.060048
-0.059881
-0.059667
-0.059405
-0.059102
-0.058756
-0.058370
-0.057945
-0.057483
-0.056986
-0.056454
-0.055890
-0.055295
-0.054670
-0.054018
-0.053338
-0.052634
-0.051900
-0.051149
-0.050377
-0.049586
-0.048776
-0.047949
-0.046892
-0.046031
-0.045157
-0.044272
-0.043375
-0.042469
-0.041555
-0.040632
-0.039704
-0.038770
-0.037832
-0.036883
-0.035938
-0.034992
-0.034045
-0.033099
-0.032153
-0.031209
-0.030267
-0.029329
-0.028394
-0.027465
-0.026540
-0.025622
-0.024710
-0.023798
-0.022901
-0.022012
-0.020912
-0.020043
-0.019185
-0.018337
-0.017499
-0.016673
-0.015858
-0.015054
-0.014263
-0.013485
-0.012719
-0.011966
-0.011226
-0.010500
-0.009783
-0.009084
-0.008400
-0.007730
-0.007074
-0.006433
-0.005806
-0.005194
-0.004596
-0.004014
-0.003446
-0.002893
-0.002355
-0.001832
-0.001320
-0.000709
-0.000234
0.012553
0.036868
0.060385
0.083109
0.105045
0.126199
0.146578
0.166186
0.185033
0.203125
0.220470
0.237077
0.252954
0.268111
0.282664
0.296404
0.309452
0.321819
0.333516
0.344554
0.354944
0.364698
0.373826
0.382340
0.390253
0.397576
0.405932
0.411972
0.417463
0.422416
0.426845
0.430790
0.434205
0.437132
0.439587
0.441580
0.443126
0.444236
0.444923
0.445201
0.445081
0.444577
0.443701
0.442465
0.440882
0.438948
0.436705
0.434152
0.431300
0.428161
0.424748
0.421072
0.417143
0.412975
0.407435
0.402766
0.397892
0.392825
0.387574
0.382151
0.376565
0.370826
0.364898
0.358882
0.352742
0.346488
0.340128
0.333671
0.327126
0.320503
0.313807
0.307049
0.300236
0.293375
0.286474
0.279540
0.272528
0.265549
0.258559
0.251563
0.244568
0.237579
0.230603
0.221897
0.214970
0.208074
0.201213
0.194392
0.187617
0.180891
0.174219
0.167605
0.161053
0.154518
0.148101
0.141757
0.135490
0.129301
0.123194
0.117172
0.111237
0.105392
0.099639
0.093981
0.088418
0.082953
0.077588
0.072284
0.067124
0.062067
0.057115
0.051066
0.046354
0.041750
0.037255
0.032868
0.028591
0.024424
0.020366
0.016419
0.012581
0.008854
0.005235
0.001727
-0.001699
-0.004990
-0.008172
-0.011248
-0.014216
-0.017079
-0.019837
-0.022491
-0.025042
-0.027490
-0.029837
-0.032085
-0.034234
-0.036285
-0.038254
-0.040554
-0.042297
-0.043961
-0.045521
-0.046993
-0.048377
-0.049676
-0.050890
-0.052021
-0.053072
-0.054043
-0.054937
-0.055754
-0.056497
-0.057168
-0.057767
-0.058301
-0.058763
-0.059159
-0.059492
-0.059761
-0.059971
-0.060121
-0.060214
-0.060251
-0.060235
-0.060167
-0.060048
-0.059881
-0.059606
-0.059335
-0.059021
-0.058665
-0.058267
-0.057832
-0.057361
-0.056855
-0.056315
-0.055743
-0.055140
-0.054508
-0.053849
-0.053163
-0.052452
-0.051718
-0.050962
-0.050186
-0.049384
-0.048569
-0.047738
-0.046892
-0.046031
-0.045157
-0.044272
-0.043375
-0.042469
-0.041555
-0.040399
-0.039469
-0.038534
-0.037595
-0.036652
-0.035707
-0.034761
-0.033807
-0.032860
-0.031915
-0.030971
-0.030030
-0.029093
-0.028160
-0.027231
-0.026308
-0.025391
-0.024481
-0.023578
-0.022683
-0.021796
-0.020912
-0.020043
-0.019185
-0.018337
-0.017499
-0.016673
-0.015858
-0.015054
-0.014066
-0.013291
-0.012528
-0.011778
-0.011042
-0.010320
-0.009611
-0.008916
-0.008235
-0.007563
-0.006911
-0.006273
-0.005650
-0.005042
-0.004448
-0.003869
-0.003305
-0.002756
-0.002222
-0.001703
-0.001198
-0.000709
-0.000234
0.012553
0.036868
0.060385
0.083109
0.105045
0.131406
0.151589
0.171006
0.189661
0.207564
0.224723
0.241145
0.256840
0.271817
0.286085
0.299654
0.312535
0.324828
0.336359
0.347232
0.357461
0.367056
0.376028
0.384390
0.392153
0.399329
0.405932
0.411972
0.417463
0.422416
0.426845
0.430790
0.434964
0.437775
0.440132
0.442011
0.443446
0.444448
0.445031
0.445208
0.444990
0.444391
0.443423
0.442098
0.440430
0.438430
0.436110
0.433482
0.430536
0.427327
0.423846
0.420105
0.416116
0.411888
0.407435
0.402766
0.397892
0.392825
0.387574
0.382151
0.376565
0.369357
0.363441
0.357393
0.351224
0.344895
0.338510
0.332030
0.325465
0.318822
0.312111
0.305338
0.298512
0.291640
0.284730
0.277789
0.270824
0.263842
0.256850
0.249800
0.242806
0.235820
0.228849
0.221897
0.214970
0.208074
0.201213
0.194392
0.187617
0.180891
0.172547
0.165949
0.159413
0.152944
0.146545
0.140219
0.133923
0.127755
0.121669
0.115669
0.109756
0.103934
0.098205
0.092570
0.087032
0.081592
0.076252
0.071014
0.065879
0.060848
0.055884
0.051066
0.046354
0.041750
0.037255
0.032868
0.028591
0.024424
0.019362
0.015442
0.011632
0.007932
0.004341
0.000860
-0.002513
-0.005777
-0.008933
-0.012005
-0.014947
-0.017784
-0.020515
-0.023143
-0.025668
-0.028091
-0.030413
-0.032635
-0.034760
-0.036786
-0.038717
-0.040554
-0.042297
-0.043961
-0.045521
-0.046993
-0.048377
-0.049676
-0.050890
-0.052294
-0.053324
-0.054276
-0.055150
-0.055948
-0.056673
-0.057325
-0.057907
-0.058420
-0.058866
-0.059246
-0.059565
-0.059820
-0.060014
-0.060150
-0.060228
-0.060252
-0.060223
-0.060142
-0.060011
-0.059832
-0.059606
-0.059335
-0.059021
-0.058665
-0.058267
-0.057832
-0.057361
-0.056722
-0.056174
-0.055594
-0.054984
-0.054345
-0.053678
-0.052986
-0.052270
-0.051530
-0.050769
-0.049987
-0.049186
-0.048368
-0.047533
-0.046676
-0.045812
-0.044935
-0.044047
-0.043148
-0.042240
-0.041323
-0.040399
-0.039469
-0.038534
-0.037595
-0.036652
-0.035707
-0.034761
-0.033807
-0.032629
-0.031684
-0.030734
-0.029794
-0.028857
-0.027925
-0.026998
-0.026077
-0.025161
-0.024253
-0.023352
-0.022459
-0.021574
-0.020699
-0.019833
-0.018977
-0.018125
-0.017290
-0.016466
-0.015654
-0.014854
-0.014066
-0.013291
-0.012528
-0.011778
-0.011042
-0.010320
-0.009611
-0.008743
-0.008066
-0.007403
-0.006754
-0.006120
-0.005496
-0.004891
-0.004301
-0.003726
-0.003166
-0.002620
-0.002090
-0.001574
-0.001073
-0.000588
-0.000116
0.018567
0.042686
0.066009
0.088709
0.110448
0.131406
0.151589
0.171006
0.189661
0.207564
0.224723
0.241145
0.260680
0.275477
0.289569
0.302964
0.315673
0.327706
0.339075
0.349790
0.359937
0.369374
0.378191
0.386401
0.394015
0.401046
0.407506
0.413406
0.418761
0.423581
0.427880
0.431670
0.434964
0.437775
0.440132
0.442011
0.443446
0.444448
0.445031
0.445208
0.444875
0.444181
0.443122
0.441710
0.439957
0.437875
0.435476
0.432773
0.429778
0.426501
0.422956
0.419123
0.415073
0.410787
0.406278
0.401557
0.396633
0.391519
0.386224
0.380758
0.375133
0.369357
0.363441
0.357393
0.351224
0.344895
0.338510
0.332030
0.325465
0.317138
0.310410
0.303623
0.296785
0.289903
0.282984
0.276037
0.269067
0.262082
0.255088
0.248091
0.241099
0.234116
0.227095
0.220149
0.213230
0.206342
0.199491
0.192681
0.185918
0.179205
0.172547
0.165949
0.159413
0.152944
0.146545
0.140219
0.133923
0.126260
0.120195
0.114171
0.108281
0.102482
0.096777
0.091166
0.085652
0.080238
0.074923
0.069711
0.064601
0.059597
0.054697
0.049905
0.045219
0.040607
0.036139
0.031781
0.027531
0.023391
0.019362
0.015442
0.011632
0.007932
0.004341
0.000860
-0.002513
-0.006582
-0.009712
-0.012734
-0.015650
-0.018461
-0.021187
-0.023789
-0.026288
-0.028685
-0.030982
-0.033180
-0.035279
-0.037282
-0.039189
-0.041002
-0.042722
-0.044350
-0.045889
-0.047339
-0.048712
-0.049989
-0.051183
-0.052294
-0.053324
-0.054276
-0.055150
-0.055948
-0.056673
-0.057479
-0.058043
-0.058539
-0.058968
-0.059332
-0.059633
-0.059873
-0.060052
-0.060175
-0.060240
-0.060250
-0.060207
-0.060113
-0.059970
-0.059779
-0.059542
-0.059260
-0.058935
-0.058569
-0.058164
-0.057721
-0.057241
-0.056722
-0.056174
-0.055594
-0.054984
-0.054345
-0.053678
-0.052986
-0.052086
-0.051340
-0.050574
-0.049787
-0.048982
-0.048159
-0.047320
-0.046467
-0.045599
-0.044719
-0.043821
-0.042920
-0.042009
-0.041091
-0.040165
-0.039234
-0.038298
-0.037357
-0.036414
-0.035469
-0.034522
-0.033576
-0.032629
-0.031684
-0.030734
-0.029794
-0.028857
-0.027925
-0.026765
-0.025845
-0.024932
-0.024025
-0.023126
-0.022235
-0.021353
-0.020480
-0.019616
-0.018763
-0.017920
-0.017087
-0.016267
-0.015451
-0.014654
-0.013869
-0.013097
-0.012338
-0.011592
-0.010859
-0.010140
-0.009434
-0.008743
-0.008066
-0.007403
-0.006754
-0.006120
-0.005496
-0.004745
-0.004159
-0.003588
-0.003027
-0.002485
-0.001959
-0.001447
-0.000950
-0.000467
-0.000000
0.024718
0.048636
0.071759
0.094092
0.115639
0.136407
0.156553
0.175776
0.194242
0.211957
0.228929
0.245167
0.260680
0.275477
0.289569
0.302964
0.315673
0.327706
0.341835
0.352388
0.362300
0.371584
0.380252
0.388316
0.395841
0.402727
0.409044
0.414806
0.420025
0.424712
0.428882
0.432546
0.435717
0.438409
0.440633
0.442402
0.443730
0.444634
0.445114
0.445190
0.444875
0.444181
0.443122
0.441710
0.439957
0.437875
0.434824
0.432046
0.428978
0.425633
0.422022
0.418156
0.414047
0.409706
0.405144
0.400335
0.395363
0.390202
0.384863
0.379356
0.373692
0.367879
0.361929
0.355850
0.349652
0.343344
0.336935
0.330434
0.323799
0.317138
0.310410
0.303623
0.296785
0.289903
0.282984
0.274283
0.267309
0.260321
0.253325
0.246329
0.239339
0.232359
0.225396
0.218456
0.211544
0.204665
0.197771
0.190973
0.184222
0.177523
0.170879
0.164296
0.157777
0.151325
0.144944
0.138638
0.132409
0.126260
0.120195
0.114171
0.108281
0.102482
0.095397
0.089768
0.084279
0.078889
0.073600
0.068414
0.063331
0.058353
0.053480
0.048714
0.044056
0.039506
0.035065
0.030732
0.026510
0.022366
0.018364
0.014472
0.010689
0.007017
0.003454
-0.000000
-0.003345
-0.006582
-0.009712
-0.012734
-0.015650
-0.018461
-0.021832
-0.024409
-0.026883
-0.029256
-0.031545
-0.033718
-0.035793
-0.037771
-0.039654
-0.041444
-0.043140
-0.044746
-0.046262
-0.047690
-0.049032
-0.050288
-0.051462
-0.052553
-0.053571
-0.054503
-0.055358
-0.056138
-0.056844
-0.057479
-0.058043
-0.058539
-0.058968
-0.059332
-0.059633
-0.059923
-0.060088
-0.060196
-0.060247
-0.060244
-0.060189
-0.060082
-0.059926
-0.059723
-0.059475
-0.059182
-0.058847
-0.058471
-0.058056
-0.057603
-0.057114
-0.056591
-0.056035
-0.055448
-0.054830
-0.054179
-0.053507
-0.052808
-0.052086
-0.051340
-0.050574
-0.049787
-0.048982
-0.047949
-0.047107
-0.046249
-0.045379
-0.044496
-0.043602
-0.042698
-0.041786
-0.040865
-0.039931
-0.038999
-0.038061
-0.037120
-0.036176
-0.035231
-0.034284
-0.033337
-0.032391
-0.031446
-0.030504
-0.029565
-0.028629
-0.027698
-0.026765
-0.025845
-0.024932
-0.024025
-0.023126
-0.022012
-0.021132
-0.020261
-0.019400
-0.018549
-0.017709
-0.016880
-0.016062
-0.015256
-0.014461
-0.013680
-0.012911
-0.012149
-0.011406
-0.010677
-0.009961
-0.009259
-0.008571
-0.007897
-0.007238
-0.006593
-0.005962
-0.005347
-0.004745
-0.004159
-0.003588
-0.003027
-0.002485
-0.001959
-0.001320
-0.000827
-0.000348
0.006302
0.030818
0.054536
0.077459
0.099593
0.120944
0.141517
0.161319
0.180357
0.198638
0.216171
0.233088
0.249143
0.264475
0.279093
0.293008
0.306229
0.318767
0.330632
0.341835
0.352388
0.362300
0.371584
0.380252
0.388316
0.397576
0.404322
0.410503
0.416171
0.421255
0.425811
0.429852
0.433391
0.436440
0.439012
0.441121
0.442778
0.443996
0.444789
0.445169
0.445148
0.444740
0.443949
0.442799
0.441300
0.439463
0.437300
0.434824
0.432046
0.428978
0.425633
0.422022
0.418156
0.412975
0.408577
0.403961
0.399138
0.394119
0.388914
0.383491
0.377944
0.372241
0.366393
0.360410
0.354300
0.348073
0.341739
0.335306
0.328783
0.322178
0.315500
0.308757
0.301957
0.295055
0.288163
0.281236
0.274283
0.267309
0.260321
0.253325
0.246329
0.237579
0.230603
0.223646
0.216712
0.209808
0.202937
0.196106
0.189319
0.182581
0.175844
0.169215
0.162648
0.156145
0.149711
0.143348
0.137061
0.130852
0.124725
0.118681
0.112724
0.106856
0.101080
0.095397
0.089768
0.084279
0.078889
0.073600
0.068414
0.063331
0.057115
0.052269
0.047531
0.042900
0.038377
0.033963
0.029658
0.025463
0.021378
0.017403
0.013538
0.009754
0.006109
0.002574
-0.000853
-0.004171
-0.007381
-0.010483
-0.013478
-0.016368
-0.019152
-0.021832
-0.024409
-0.026883
-0.029256
-0.031545
-0.033718
-0.035793
-0.038254
-0.040114
-0.041880
-0.043553
-0.045137
-0.046630
-0.048036
-0.049356
-0.050592
-0.051744
-0.052815
-0.053806
-0.054719
-0.055555
-0.056323
-0.057011
-0.057627
-0.058174
-0.058653
-0.059066
-0.059414
-0.059699
-0.059923
-0.060088
-0.060196
-0.060247
-0.060244
-0.060189
-0.060082
-0.059881
-0.059667
-0.059405
-0.059102
-0.058756
-0.058370
-0.057945
-0.057483
-0.056986
-0.056454
-0.055890
-0.055295
-0.054670
-0.054018
-0.053338
-0.052634
-0.051900
-0.051149
-0.050377
-0.049586
-0.048776
-0.047949
-0.047107
-0.046249
-0.045379
-0.044496
-0.043602
-0.042698
-0.041555
-0.040632
-0.039704
-0.038770
-0.037832
-0.036883
-0.035938
-0.034992
-0.034045
-0.033099
-0.032153
-0.031209
-0.030267
-0.029329
-0.028394
-0.027465
-0.026540
-0.025622
-0.024710
-0.023798
-0.022901
-0.022012
-0.021132
-0.020261
-0.019400
-0.018549
-0.017709
-0.016880
-0.016062
-0.015054
-0.014263
-0.013485
-0.012719
-0.011966
-0.011226
-0.010500
-0.009783
-0.009084
-0.008400
-0.007730
-0.007074
-0.006433
-0.005806
-0.005194
-0.004596
-0.004014
-0.003446
-0.002893
-0.002355
-0.001832
-0.001320
-0.000827
-0.000348
0.006302
0.030818
0.054536
0.083109
0.105045
0.126199
0.146578
0.166186
0.185033
0.203125
0.220470
0.237077
0.252954
0.268111
0.282664
0.296404
0.309452
0.321819
0.333516
0.344554
0.354944
0.364698
0.373826
0.382340
0.390253
0.397576
0.404322
0.410503
0.416171
0.421255
0.425811
0.430790
0.434205
0.437132
0.439587
0.441580
0.443126
0.444236
0.444923
0.445201
0.445081
0.444577
0.443701
0.442465
0.440882
0.438948
0.436705
0.434152
0.431300
0.428161
0.424748
0.421072
0.417143
0.412975
0.408577
0.403961
0.399138
0.394119
0.388914
0.383491
0.376565
0.370826
0.364898
0.358882
0.352742
0.346488
0.340128
0.333671
0.327126
0.320503
0.313807
0.307049
0.300236
0.293375
0.286474
0.279540
0.272528
0.265549
0.258559
0.251563
0.244568
0.237579
0.230603
0.223646
0.216712
0.209808
0.202937
0.196106
0.189319
0.180891
0.174219
0.167605
0.161053
0.154518
0.148101
0.141757
0.135490
0.129301
0.123194
0.117172
0.111237
0.105392
0.099639
0.093981
0.088418
0.082953
0.077588
0.072284
0.067124
0.062067
0.057115
0.052269
0.047531
0.042900
0.038377
0.033963
0.029658
0.024424
0.020366
0.016419
0.012581
0.008854
0.005235
0.001727
-0.001699
-0.004990
-0.008172
-0.011248
-0.014216
-0.017079
-0.019837
-0.022491
-0.025042
-0.027490
-0.029837
-0.032085
-0.034234
-0.036285
-0.038254
-0.040114
-0.041880
-0.043553
-0.045137
-0.046630
-0.048036
-0.049676
-0.050890
-0.052021
-0.053072
-0.054043
-0.054937
-0.055754
-0.056497
-0.057168
-0.057767
-0.058301
-0.058763
-0.059159
-0.059492
-0.059761
-0.059971
-0.060121
-0.060214
-0.060251
-0.060235
-0.060167
-0.060048
-0.059881
-0.059667
-0.059405
-0.059102
-0.058756
-0.058370
-0.057945
-0.057361
-0.056855
-0.056315
-0.055743
-0.055140
-0.054508
-0.053849
-0.053163
-0.052452
-0.051718
-0.050962
-0.050186
-0.049384
-0.048569
-0.047738
-0.046892
-0.046031
-0.045157
-0.044272
-0.043375
-0.042469
-0.041555
-0.040632
-0.039704
-0.038770
-0.037832
-0.036883
-0.035938
-0.034761
-0.033807
-0.032860
-0.031915
-0.030971
-0.030030
-0.029093
-0.028160
-0.027231
-0.026308
-0.025391
-0.024481
-0.023578
-0.022683
-0.021796
-0.020912
-0.020043
-0.019185
-0.018337
-0.017499
-0.016673
-0.015858
-0.015054
-0.014263
-0.013485
-0.012719
-0.011966
-0.011226
-0.010320
-0.009611
-0.008916
-0.008235
-0.007563
-0.006911
-0.006273
-0.005650
-0.005042
-0.004448
-0.003869
-0.003305
-0.002756
-0.002222
-0.001703
-0.001198
-0.000709
-0.000234
0.012553
0.036868
0.060385
0.083109
0.105045
0.126199
0.146578
0.166186
0.185033
0.203125
0.224723
0.241145
0.256840
0.271817
0.286085
0.299654
0.312535
0.324828
0.336359
0.347232
0.357461
0.367056
0.376028
0.384390
0.392153
0.399329
0.405932
0.411972
0.417463
0.422416
0.426845
0.430790
0.434205
0.437132
0.439587
0.441580
0.443126
0.444236
0.444923
0.445208
0.444990
0.444391
0.443423
0.442098
0.440430
0.438430
0.436110
0.433482
0.430536
0.427327
0.423846
0.420105
0.416116
0.411888
0.407435
0.402766
0.397892
0.392825
0.387574
0.382151
0.376565
0.370826
0.364898
0.358882
0.352742
0.346488
0.340128
0.332030
0.325465
0.318822
0.312111
0.305338
0.298512
0.291640
0.284730
0.277789
0.270824
0.263842
0.256850
0.249800
0.242806
0.235820
0.228849
0.221897
0.214970
0.208074
0.201213
0.194392
0.187617
0.180891
0.174219
0.167605
0.161053
0.154518
0.148101
0.141757
0.133923
0.127755
0.121669
0.115669
0.109756
0.103934
0.098205
0.092570
0.087032
0.081592
0.076252
0.071014
0.065879
0.060848
0.055884
0.051066
0.046354
0.041750
0.037255
0.032868
0.028591
0.024424
0.020366
0.016419
0.012581
0.008854
0.005235
0.001727
-0.001699
-0.005777
-0.008933
-0.012005
-0.014947
-0.017784
-0.020515
-0.023143
-0.025668
-0.028091
-0.030413
-0.032635
-0.034760
-0.036786
-0.038717
-0.040554
-0.042297
-0.043961
-0.045521
-0.046993
-0.048377
-0.049676
-0.050890
-0.052021
-0.053072
-0.054043
-0.054937
-0.055754
-0.056673
-0.057325
-0.057907
-0.058420
-0.058866
-0.059246
-0.059565
-0.059820
-0.060014
-0.060150
-0.060228
-0.060252
-0.060223
-0.060142
-0.060011
-0.059832
-0.059606
-0.059335
-0.059021
-0.058665
-0.058267
-0.057832
-0.057361
-0.056855
-0.056315
-0.055743
-0.055140
-0.054508
-0.053678
-0.052986
-0.052270
-0.051530
-0.050769
-0.049987
-0.049186
-0.048368
-0.047533
-0.046676
-0.045812
-0.044935
-0.044047
-0.043148
-0.042240
-0.041323
-0.040399
-0.039469
-0.038534
-0.037595
-0.036652
-0.035707
-0.034761
-0.033807
-0.032860
-0.031915
-0.030971
-0.030030
-0.029093
-0.027925
-0.026998
-0.026077
-0.025161
-0.024253
-0.023352
-0.022459
-0.021574
-0.020699
-0.019833
-0.018977
-0.018125
-0.017290
-0.016466
-0.015654
-0.014854
-0.014066
-0.013291
-0.012528
-0.011778
-0.011042
-0.010320
-0.009611
-0.008916
-0.008235
-0.007563
-0.006911
-0.006273
-0.005496
-0.004891
-0.004301
-0.003726
-0.003166
-0.002620
-0.002090
-0.001574
-0.001073
-0.000588
-0.000116
0.018567
0.042686
0.066009
0.088709
0.110448
0.131406
0.151589
0.171006
0.189661
0.207564
0.224723
0.241145
0.256840
0.271817
0.286085
0.299654
0.312535
0.327706
0.339075
0.349790
0.359937
0.369374
0.378191
0.386401
0.394015
0.401046
0.407506
0.413406
0.418761
0.423581
0.427880
0.431670
0.434964
0.437775
0.440132
0.442011
0.443446
0.444448
0.445031
0.445208
0.444990
0.444391
0.443423
0.442098
0.440430
0.437875
0.435476
0.432773
0.429778
0.426501
0.422956
0.419123
0.415073
0.410787
0.406278
0.401557
0.396633
0.391519
0.386224
0.380758
0.375133
0.369357
0.363441
0.357393
0.351224
0.344895
0.338510
0.332030
0.325465
0.318822
0.312111
0.305338
0.298512
0.291640
0.282984
0.276037
0.269067
0.262082
0.255088
0.248091
0.241099
0.234116
0.227095
0.220149
0.213230
0.206342
0.199491
0.192681
0.185918
0.179205
0.172547
0.165949
0.159413
0.152944
0.146545
0.140219
0.133923
0.127755
0.121669
0.115669
0.109756
0.103934
0.096777
0.091166
0.085652
0.080238
0.074923
0.069711
0.064601
0.059597
0.054697
0.049905
0.045219
0.040607
0.036139
0.031781
0.027531
0.023391
0.019362
0.015442
0.011632
0.007932
0.004341
0.000860
-0.002513
-0.005777
-0.008933
-0.012005
-0.014947
-0.017784
-0.021187
-0.023789
-0.026288
-0.028685
-0.030982
-0.033180
-0.035279
-0.037282
-0.039189
-0.041002
-0.042722
-0.044350
-0.045889
-0.047339
-0.048712
-0.049989
-0.051183
-0.052294
-0.053324
-0.054276
-0.055150
-0.055948
-0.056673
-0.057325
-0.057907
-0.058420
-0.058866
-0.059246
-0.059633
-0.059873
-0.060052
-0.060175
-0.060240
-0.060250
-0.060207
-0.060113
-0.059970
-0.059779
-0.059542
-0.059260
-0.058935
-0.058569
-0.058164
-0.057721
-0.057241
-0.056722
-0.056174
-0.055594
-0.054984
-0.054345
-0.053678
-0.052986
-0.052270
-0.051530
-0.050769
-0.049987
-0.049186
-0.048159
-0.047320
-0.046467
-0.045599
-0.044719
-0.043821
-0.042920
-0.042009
-0.041091
-0.040165
-0.039234
-0.038298
-0.037357
-0.036414
-0.035469
-0.034522
-0.033576
-0.032629
-0.031684
-0.030734
-0.029794
-0.028857
-0.027925
-0.026998
-0.026077
-0.025161
-0.024253
-0.023352
-0.022235
-0.021353
-0.020480
-0.019616
-0.018763
-0.017920
-0.017087
-0.016267
-0.015451
-0.014654
-0.013869
-0.013097
-0.012338
-0.011592
-0.010859
-0.010140
-0.009434
-0.008743
-0.008066
-0.007403
-0.006754
-0.006120
-0.005496
-0.004891
-0.004301
-0.003726
-0.003166
-0.002620
-0.002090
-0.001447
-0.000950
-0.000467
0.000000
0.024718
0.048636
0.071759
0.094092
0.115639
0.136407
0.156553
0.175776
0.194242
0.211957
0.228929
0.245167
0.260680
0.275477
0.289569
0.302964
0.315673
0.327706
0.339075
0.349790
0.359937
0.369374
0.378191
0.388316
0.395841
0.402727
0.409044
0.414806
0.420025
0.424712
0.428882
0.432546
0.435717
0.438409
0.440633
0.442402
0.443730
0.444634
0.445114
0.445190
0.444875
0.444181
0.443122
0.441710
0.439957
0.437875
0.435476
0.432773
0.429778
0.426501
0.422956
0.419123
0.414047
0.409706
0.405144
0.400335
0.395363
0.390202
0.384863
0.379356
0.373692
0.367879
0.361929
0.355850
0.349652
0.343344
0.336935
0.330434
0.323799
0.317138
0.310410
0.303623
0.296785
0.289903
0.282984
0.276037
0.269067
0.262082
0.255088
0.248091
0.241099
0.232359
0.225396
0.218456
0.211544
