Timestamp,3/5/2024 10:11:29 AM
Interval,0.004
Channel name,"Input 0"
Unit,"V"
0,2.3771971714450046
0.004,2.3898802734620403
0.008,2.4028885832231026
0.012,2.41069356907974
0.016,2.404839829687262
0.02,2.3993112980388105
0.024,2.396709636086598
0.028,2.4002869212708902
0.032,2.4012625445029698
0.036,2.4015877522469964
0.04,2.4071162838954479
0.044,2.4220758401206695
0.048,2.4119944000558462
0.052,2.3970348438306246
0.056,2.3934575586463325
0.06,2.3993112980388105
0.064,2.4002869212708902
0.068,2.3954088051104918
0.072,2.3954088051104918
0.076,2.4084171148715541
0.08,2.4080919071275275
0.084,2.4035389987111557
0.088,2.4074414916394744
0.092,2.4093927381036337
0.096,2.4035389987111557
0.1,2.3983356748067308
0.104,2.4051650374312885
0.108,2.4149212697520852
0.112,2.4214254246326163
0.116,2.4181733471923508
0.12,2.413620438775979
0.124,2.4584991074516438
0.128,2.6266315111133736
0.132,2.9310259595222306
0.136,3.2806242843507789
0.14,3.5778641623910517
0.144,3.5811162398313172
0.148,3.1111910497129429
0.152,2.4373606040899176
0.156,1.9788176850124728
0.16,1.8191406826954335
0.164,1.8705235062516294
0.168,2.0142653291113675
0.172,2.1612592294113711
0.176,2.287439834093675
0.18,2.3726442630286328
0.184,2.4132952310319524
0.188,2.434108526649652
0.192,2.4552470300113782
0.196,2.4815888572775293
0.2,2.4968736212467775
0.204,2.5017517374071758
0.208,2.4984996599669103
0.212,2.4900442586222198
0.216,2.4906946741102729
0.22,2.4939467515505385
0.224,2.5017517374071758
0.228,2.5072802690556273
0.232,2.5007761141750962
0.236,2.4968736212467775
0.24,2.5063046458235476
0.244,2.5241910717450082
0.248,2.5349229272978846
0.252,2.5375245892500971
0.256,2.5381750047381502
0.26,2.5358985505299643
0.264,2.5368741737620439
0.268,2.5313456421135925
0.272,2.5319960576016456
0.276,2.5463051983388141
0.28,2.5651672474923544
0.284,2.5713461946288589
0.288,2.5677689094445668
0.292,2.5596387158439029
0.296,2.5547605996835046
0.3,2.5570370538916904
0.304,2.5664680784684606
0.308,2.5788259727414697
0.312,2.5817528424377088
0.316,2.5739478565810714
0.32,2.5658176629804075
0.324,2.5824032579257619
0.328,2.6165500710485503
0.332,2.6302087962976657
0.336,2.6328104582498781
0.34,2.6334608737379313
0.344,2.6360625356901437
0.348,2.6445179370348342
0.352,2.6539489616116043
0.356,2.6659816481405869
0.36,2.6767135036934633
0.364,2.6796403733897023
0.368,2.6812664121098351
0.372,2.6972015915671363
0.376,2.7193157181609422
0.38,2.7332996511540841
0.384,2.7411046370107215
0.388,2.7476087918912526
0.392,2.7489096228673588
0.396,2.7557389854919165
0.4,2.764194386836607
0.404,2.772974995925324
0.408,2.7798043585498817
0.412,2.7866337211744394
0.416,2.781105189525988
0.42,2.7677716720208991
0.424,2.7531373235397041
0.428,2.7202913413930219
0.432,2.6871201515023131
0.436,2.649070845451206
0.44,2.6025661380554084
0.444,2.5521589377312921
0.448,2.4991500754549634
0.452,2.4549218222673517
0.456,2.4292304104892537
0.46,2.4074414916394744
0.464,2.3817500798613764
0.468,2.3515057596669067
0.472,2.3401234886259772
0.476,2.3371966189297382
0.48,2.32191185496049
0.484,2.296220443182392
0.488,2.2893910805578344
0.492,2.2910171192779671
0.496,2.2893910805578344
0.5,2.2789844327489845
0.504,2.2750819398206659
0.508,2.2776836017728783
0.512,2.2793096404930111
0.516,2.2744315243326128
0.52,2.2754071475646924
0.524,2.2854885876295157
0.528,2.296220443182392
0.532,2.2949196122062858
0.536,2.2958952354383655
0.54,2.3004481438547373
0.544,2.3020741825748701
0.548,2.2939439889742061
0.552,2.2858137953735422
0.556,2.2858137953735422
0.56,2.2880902495817281
0.564,2.2867894186056219
0.568,2.2884154573257547
0.572,2.2890658728138078
0.576,2.2923179502540734
0.58,2.3037002212950028
0.584,2.3059766755031887
0.588,2.3023993903188966
0.592,2.3027245980629232
0.596,2.3023993903188966
0.6,2.3017489748308435
0.604,2.3010985593427904
0.608,2.3037002212950028
0.612,2.3079279219673481
0.616,2.3046758445270825
0.62,2.296220443182392
0.624,2.2988221051346045
0.628,2.3037002212950028
0.632,2.2988221051346045
0.636,2.2906919115339406
0.64,2.2890658728138078
0.644,2.2900414960458875
0.648,2.2890658728138078
0.652,2.2897162883018609
0.656,2.3027245980629232
0.66,2.3157329078239854
0.664,2.310204376175534
0.668,2.3089035451994278
0.672,2.3040254290390294
0.676,2.3040254290390294
0.68,2.3076027142233215
0.684,2.3082531297113746
0.688,2.3206110239843838
0.692,2.335895787953632
0.696,2.3332941260014195
0.7,2.3199606084963307
0.704,2.313131245871773
0.708,2.3170337388000917
0.712,2.3193101930082776
0.716,2.318984985264251
0.72,2.3144320768478792
0.724,2.3137816613598261
0.728,2.3176841542881448
0.732,2.32191185496049
0.736,2.32191185496049
0.74,2.3300420485611539
0.744,2.3336193337454461
0.748,2.3319932950253133
0.752,2.3280908020969946
0.756,2.3186597775202245
0.76,2.3199606084963307
0.764,2.3251639324007556
0.768,2.3251639324007556
0.772,2.330692464049207
0.776,2.3316680872812867
0.78,2.3254891401447821
0.784,2.3193101930082776
0.788,2.318984985264251
0.792,2.318984985264251
0.796,2.3154077000799589
0.8,2.3037002212950028
0.804,2.2955700276943389
0.808,2.3001229361107107
0.812,2.3082531297113746
0.816,2.304350636783056
0.82,2.3023993903188966
0.824,2.2919927425100468
0.828,2.2767079785407986
0.832,2.27280548561248
0.836,2.2773583940288518
0.84,2.2945944044622593
0.844,2.3095539606874809
0.848,2.3180093620321713
0.852,2.3108547916635871
0.856,2.3098791684315074
0.86,2.3092287529434543
0.864,2.3059766755031887
0.868,2.3076027142233215
0.872,2.3154077000799589
0.876,2.32191185496049
0.88,2.3215866472164635
0.884,2.3141068691038527
0.888,2.3069522987352684
0.892,2.3092287529434543
0.896,2.3111799994076136
0.9,2.3111799994076136
0.904,2.3066270909912419
0.908,2.2988221051346045
0.912,2.2965456509264186
0.916,2.2929683657421265
0.92,2.2945944044622593
0.924,2.3033750135509763
0.928,2.3056514677591622
0.932,2.296220443182392
0.936,2.296220443182392
0.94,2.3108547916635871
0.944,2.3193101930082776
0.948,2.3199606084963307
0.952,2.3180093620321713
0.956,2.3225622704485431
0.96,2.3176841542881448
0.964,2.3186597775202245
0.968,2.3183345697761979
0.972,2.3502049286908004
0.976,2.4679301320284139
0.98,2.6991528380312957
0.984,3.0067993638804182
0.988,3.3264785762585234
0.992,3.5245300923706964
0.996,3.3118442277773283
1,2.7199661336489953
1.004,2.1528038280666806
1.008,1.8701982985076029
1.012,1.8425556402653456
1.016,1.9492237803060561
1.02,2.0926403954217676
1.024,2.2302032711450011
1.028,2.3407739041140303
1.032,2.4103683613357134
1.036,2.448092459642794
1.04,2.4672797165403608
1.044,2.4880930121580604
1.048,2.4981744522228837
1.052,2.500125698687043
1.056,2.5011013219191227
1.06,2.4988248677109368
1.064,2.5066298535675742
1.068,2.5271179414412472
1.072,2.5489068602910265
1.076,2.5541101841954514
1.08,2.566142870724434
1.084,2.5778503495093901
1.088,2.5817528424377088
1.092,2.5788259727414697
1.096,2.580126803717576
1.1,2.5729722333489917
1.104,2.5596387158439029
1.108,2.5531345609633718
1.112,2.5524841454753187
1.116,2.5463051983388141
1.12,2.5492320680350531
1.124,2.5609395468200091
1.128,2.5635412087722216
1.132,2.5537849764514249
1.136,2.545654782850761
1.14,2.5531345609633718
1.144,2.560289131331956
1.148,2.5521589377312921
1.152,2.5505328990111593
1.156,2.5589883003558498
1.16,2.5674437017005403
1.164,2.5651672474923544
1.168,2.5684193249326199
1.172,2.5814276346936822
1.176,2.5791511804854963
1.18,2.577199934021337
1.184,2.5781755572534166
1.188,2.5846797121339478
1.192,2.5915090747585054
1.196,2.5944359444547445
1.2,2.5928099057346117
1.204,2.5986636451270897
1.208,2.61752569428063
1.212,2.6370381589222234
1.216,2.6500464686832856
1.22,2.6500464686832856
1.224,2.6516725074034184
1.228,2.6539489616116043
1.232,2.6506968841713388
1.236,2.6594774932600558
1.24,2.6682581023487728
1.244,2.6708597643009853
1.248,2.6799655811337288
1.252,2.6965511760790832
1.256,2.7043561619357206
1.26,2.7141123942565173
1.264,2.7092342780961189
1.268,2.6916730599186849
1.272,2.677689126925543
1.276,2.6692337255808525
1.28,2.6539489616116043
1.284,2.6243550569051877
1.288,2.6002896838472225
1.292,2.5752486875571776
1.296,2.5420774976664688
1.3,2.5056542303354945
1.304,2.468580547516467
1.308,2.4295556182332803
1.312,2.3957340128545184
1.316,2.3690669778443407
1.32,2.3524813828989863
1.324,2.3319932950253133
1.328,2.3056514677591622
1.332,2.2702038236602675
1.336,2.2513417745067272
1.34,2.255894682923099
1.344,2.2702038236602675
1.348,2.2711794468923472
1.352,2.2663013307319488
1.356,2.2620736300596036
1.36,2.2565450984111521
1.364,2.2552442674350459
1.368,2.2523173977388069
1.372,2.2532930209708866
1.376,2.2562198906671256
1.38,2.2542686442029662
1.384,2.2542686442029662
1.388,2.2575207216432318
1.392,2.2614232145715505
1.396,2.2620736300596036
1.4,2.2610980068275239
1.404,2.2685777849401347
1.408,2.2825617179332767
1.412,2.2893910805578344
1.416,2.2880902495817281
1.42,2.287439834093675
1.424,2.2958952354383655
1.428,2.3134564536157995
1.432,2.3118304148956668
1.436,2.2965456509264186
1.44,2.2949196122062858
1.444,2.3037002212950028
1.448,2.3115052071516402
1.452,2.3209362317284103
1.456,2.3326437105133664
1.46,2.3463024357624818
1.464,2.3492293054587208
1.468,2.347603266738588
1.472,2.3485788899706677
1.476,2.3511805519228801
1.48,2.3489040977146942
1.484,2.3427251505781896
1.488,2.3423999428341631
1.492,2.350530136434827
1.496,2.3515057596669067
1.5,2.3420747350901365
1.504,2.3401234886259772
1.508,2.3404486963700037
1.512,2.3368714111857116
1.516,2.3336193337454461
1.52,2.3345949569775257
1.524,2.3401234886259772
1.528,2.3550830448511988
1.532,2.3596359532675706
1.536,2.3511805519228801
1.54,2.3456520202744287
1.544,2.3466276435065083
1.548,2.344676397042349
1.552,2.3450016047863755
1.556,2.3524813828989863
1.56,2.3537822138750926
1.564,2.3466276435065083
1.568,2.3375218266737647
1.572,2.3316680872812867
1.576,2.3316680872812867
1.58,2.3365462034416851
1.584,2.3345949569775257
1.588,2.3371966189297382
1.592,2.3410991118580569
1.596,2.3394730731379241
1.6,2.3355705802096054
1.604,2.3339445414894726
1.608,2.3342697492334992
1.612,2.3349201647215523
1.616,2.3326437105133664
1.62,2.3310176717932336
1.624,2.3297168408171274
1.628,2.3274403866089415
1.632,2.316058115568012
1.636,2.3111799994076136
1.64,2.3212614394724369
1.644,2.3264647633768618
1.648,2.3228874781925697
1.652,2.318984985264251
1.656,2.3232126859365962
1.66,2.3280908020969946
1.664,2.3280908020969946
1.668,2.3293916330731008
1.672,2.3339445414894726
1.676,2.3352453724655788
1.68,2.3206110239843838
1.684,2.3040254290390294
1.688,2.3037002212950028
1.692,2.3154077000799589
1.696,2.327765594352968
1.7,2.3323185027693398
1.704,2.3310176717932336
1.708,2.3310176717932336
1.712,2.3267899711208884
1.716,2.3193101930082776
1.72,2.3170337388000917
1.724,2.324838724656729
1.728,2.3339445414894726
1.732,2.3378470344177913
1.736,2.3352453724655788
1.74,2.327765594352968
1.744,2.3202858162403572
1.748,2.3186597775202245
1.752,2.3206110239843838
1.756,2.3261395556328353
1.76,2.3339445414894726
1.764,2.3397982808819506
1.768,2.347603266738588
1.772,2.347603266738588
1.776,2.3508553441788536
1.78,2.3511805519228801
1.784,2.3573594990593847
1.788,2.3541074216191191
1.792,2.347603266738588
1.796,2.3492293054587208
1.8,2.3560586680832785
1.804,2.3602863687556237
1.808,2.3541074216191191
1.812,2.347603266738588
1.816,2.3524813828989863
1.82,2.3602863687556237
1.824,2.3648392771719955
1.828,2.3742703017487656
1.832,2.3778475869330578
1.836,2.3719938475405797
1.84,2.3664653158921283
1.844,2.3661401081481017
1.848,2.3674409391242079
1.852,2.379148417909164
1.856,2.387929026997881
1.86,2.396709636086598
1.864,2.4006121290149167
1.868,2.4071162838954479
1.872,2.4152464774961118
1.876,2.4227262556087226
1.88,2.4207750091445632
1.884,2.4119944000558462
1.888,2.4110187768237665
1.892,2.4207750091445632
1.896,2.4308564492093865
1.9,2.4246775020728819
1.904,2.4103683613357134
1.908,2.4019129599910229
1.912,2.3999617135268636
1.916,2.4054902451753151
1.92,2.4097179458476603
1.924,2.4051650374312885
1.928,2.3970348438306246
1.932,2.3892298579739872
1.936,2.3882542347419076
1.94,2.3882542347419076
1.944,2.393782766390359
1.948,2.3944331818784121
1.952,2.3960592205985449
1.956,2.3963844283425715
1.96,2.3869534037658013
1.964,2.3742703017487656
1.968,2.3775223791890312
1.972,2.3980104670627043
1.976,2.4113439845677931
1.98,2.4035389987111557
1.984,2.3882542347419076
1.988,2.3778475869330578
1.992,2.385002157301642
1.996,2.4019129599910229
2,2.448092459642794
2.004,2.5768747262773104
2.008,2.8116747174644843
2.012,3.1063129335525446
2.016,3.3843655546952505
2.02,3.4546104274049867
2.024,3.1102154264808632
2.028,2.5297196033934597
2.032,2.086461448285263
2.036,1.905320734862471
2.04,1.9121500974870287
2.044,2.0103628361830488
2.048,2.1167057684797328
2.052,2.2194714155921247
2.056,2.3222370627045166
2.06,2.3960592205985449
2.064,2.4350841498817317
2.068,2.4529705758031923
2.072,2.4584991074516438
2.076,2.468580547516467
2.08,2.4806132340454496
2.084,2.4780115720932372
2.088,2.4718326249567326
2.092,2.4747594946529716
2.096,2.4750847023969982
2.1,2.4799628185573965
2.104,2.4910198818542995
2.108,2.4984996599669103
2.112,2.4984996599669103
2.116,2.497198828990804
2.12,2.5014265296631493
2.124,2.5043533993593883
2.128,2.5118331774719991
2.132,2.5193129555846099
2.136,2.5212642020487692
2.14,2.5274431491852738
2.144,2.5362237582739908
2.148,2.5349229272978846
2.152,2.5358985505299643
2.156,2.5479312370589469
2.16,2.5641916242602747
2.164,2.5576874693797436
2.168,2.5472808215708937
2.172,2.5495572757790796
2.176,2.5697201559087262
2.18,2.5902082437823992
2.184,2.5989888528711163
2.188,2.5963871909189038
2.192,2.5898830360383727
2.196,2.5827284656697884
2.2,2.5758991030452307
2.204,2.5729722333489917
2.208,2.5817528424377088
2.212,2.6045173845195677
2.216,2.6237046414171346
2.22,2.635086912458064
2.224,2.6415910673385952
2.228,2.6428918983147014
2.232,2.6396398208744358
2.236,2.6360625356901437
2.24,2.6373633666662499
2.244,2.6464691834989935
2.248,2.6715101797890384
2.252,2.6926486831507646
2.256,2.7098846935841721
2.26,2.7206165491370484
2.264,2.7215921723691281
2.268,2.706957823887933
2.272,2.6962259683350567
2.276,2.6988276302872691
2.28,2.712161147792358
2.284,2.7264702885295264
2.288,2.7372021440824028
2.292,2.7472835841472261
2.296,2.7489096228673588
2.3,2.7404542215226684
2.304,2.732649235666031
2.308,2.7235434188332874
2.312,2.7092342780961189
2.316,2.6919982676627114
2.32,2.6754126727173571
2.324,2.6552497925877105
2.328,2.6201273562328424
2.332,2.5723218178609386
2.336,2.5284187724173535
2.34,2.491345089598326
2.344,2.4555722377554048
2.348,2.4237018788408022
2.352,2.3957340128545184
2.356,2.3778475869330578
2.36,2.3726442630286328
2.364,2.3726442630286328
2.368,2.3641888616839424
2.372,2.3550830448511988
2.376,2.344676397042349
2.38,2.3310176717932336
2.384,2.3238631014246494
2.388,2.3228874781925697
2.392,2.3157329078239854
2.396,2.3059766755031887
2.4,2.2997977283666842
2.404,2.3069522987352684
2.408,2.3163833233120386
2.412,2.3254891401447821
2.416,2.3342697492334992
2.42,2.3423999428341631
2.424,2.3482536822266411
2.428,2.3443511892983224
2.432,2.3394730731379241
2.436,2.3407739041140303
2.44,2.3378470344177913
2.444,2.3352453724655788
2.448,2.3310176717932336
2.452,2.3404486963700037
2.456,2.3648392771719955
2.46,2.382075287605403
2.464,2.3810996643733233
2.468,2.3706930165644735
2.472,2.3684165623562876
2.476,2.3693921855883673
2.48,2.3719938475405797
2.484,2.3687417701003142
2.488,2.3664653158921283
2.492,2.3609367842436768
2.496,2.3524813828989863
2.5,2.3515057596669067
2.504,2.3580099145474378
2.508,2.373294678516686
2.512,2.385002157301642
2.516,2.3856525727896951
2.52,2.3853273650456686
2.524,2.3837013263255358
2.528,2.3833761185815092
2.532,2.3778475869330578
2.536,2.3736198862607125
2.54,2.3700426010764204
2.544,2.3680913546122611
2.548,2.362237615219783
2.552,2.3557334603392519
2.556,2.3557334603392519
2.56,2.3632132384518627
2.564,2.3804492488852702
2.568,2.3950835973664653
2.572,2.4006121290149167
2.576,2.3986608825507574
2.58,2.3911811044381466
2.584,2.3827257030934561
2.588,2.3817500798613764
2.592,2.3817500798613764
2.596,2.3752459249808453
2.6,2.3697173933323938
2.604,2.3687417701003142
2.608,2.3677661468682345
2.612,2.3745955094927922
2.616,2.3794736256531905
2.62,2.3856525727896951
2.624,2.3843517418135889
2.628,2.3804492488852702
2.632,2.376221548212925
2.636,2.3827257030934561
2.64,2.3911811044381466
2.644,2.3973600515746512
2.648,2.396709636086598
2.652,2.3950835973664653
2.656,2.3983356748067308
2.66,2.4022381677350495
2.664,2.3976852593186777
2.668,2.3915063121821731
2.672,2.3885794424859341
2.676,2.3876038192538545
2.68,2.3817500798613764
2.684,2.3758963404688984
2.688,2.3804492488852702
2.692,2.3895550657180138
2.696,2.3863029882777482
2.7,2.3898802734620403
2.704,2.3957340128545184
2.708,2.4006121290149167
2.712,2.3986608825507574
2.716,2.396709636086598
2.72,2.3941079741343856
2.724,2.3898802734620403
2.728,2.3843517418135889
2.732,2.3856525727896951
2.736,2.4038642064551823
2.74,2.4168725162162445
2.744,2.4171977239602711
2.748,2.4074414916394744
2.752,2.4012625445029698
2.756,2.3989860902947839
2.76,2.3960592205985449
2.764,2.3801240411412437
2.768,2.3693921855883673
2.772,2.3768719637009781
2.776,2.3960592205985449
2.78,2.4097179458476603
2.784,2.4087423226155806
2.788,2.4019129599910229
2.792,2.3960592205985449
2.796,2.393782766390359
2.8,2.3947583896224387
2.804,2.4009373367589433
2.808,2.4006121290149167
2.812,2.3960592205985449
2.816,2.3902054812060669
2.82,2.3931323509023059
2.824,2.4097179458476603
2.828,2.4152464774961118
2.832,2.4123196077998728
2.836,2.4038642064551823
2.84,2.4084171148715541
2.844,2.4152464774961118
2.848,2.4090675303596072
2.852,2.3944331818784121
2.856,2.382075287605403
2.86,2.3742703017487656
2.864,2.3771971714450046
2.868,2.4032137909671292
2.872,2.4406126815301832
2.876,2.4594747306837235
2.88,2.4601251461717766
2.884,2.453946199035272
2.888,2.4487428751308471
2.892,2.4500437061069533
2.896,2.4506941215950064
2.9,2.4464664209226612
2.904,2.4347589421377052
2.908,2.4227262556087226
2.912,2.4149212697520852
2.916,2.4269539562810678
2.92,2.4406126815301832
2.924,2.4428891357383691
2.928,2.4298808259773068
2.932,2.4132952310319524
2.936,2.4045146219432354
2.94,2.4032137909671292
2.944,2.4061406606633682
2.948,2.4084171148715541
2.952,2.4087423226155806
2.956,2.4032137909671292
2.96,2.3918315199261997
2.964,2.3794736256531905
2.968,2.3993112980388105
2.972,2.4295556182332803
2.976,2.4477672518987674
2.98,2.4445151744585019
2.984,2.4337833189056255
2.988,2.4243522943288554
2.992,2.419474178168457
2.996,2.416547308472218
3,2.4171977239602711
3.004,2.4376858118339442
3.008,2.5121583852160256
3.012,2.6698841410689056
3.016,2.9274486743379384
3.02,3.2224120981700253
3.024,3.450707934476668
3.028,3.3420885479717981
3.032,2.8695616959012114
3.036,2.3375218266737647
3.04,2.0129644981352612
3.044,1.9235323685279582
3.048,1.9664597907394636
3.052,2.0643473216914572
3.056,2.1775196166126989
3.06,2.3157329078239854
3.064,2.4175229317042977
3.068,2.4734586636768654
3.072,2.5024021528952289
3.076,2.5072802690556273
3.08,2.4936215438065119
3.084,2.4815888572775293
3.088,2.4887434276461136
3.092,2.5121583852160256
3.096,2.5306952266255394
3.1,2.5362237582739908
3.104,2.5404514589463361
3.108,2.5417522899224423
3.112,2.5440287441306282
3.116,2.5424027054104954
3.12,2.542727913154522
3.124,2.551508522243239
3.128,2.5648420397483278
3.132,2.5729722333489917
3.136,2.5768747262773104
3.14,2.5833788811578415
3.144,2.5876065818301868
3.148,2.5840292966458946
3.152,2.5846797121339478
3.156,2.5885822050622664
3.16,2.5944359444547445
3.164,2.5963871909189038
3.168,2.5957367754308507
3.172,2.5980132296390366
3.176,2.6022409303113818
3.18,2.6074442542158067
3.184,2.6168752787925769
3.188,2.6311844195297454
3.192,2.6406154441065155
3.196,2.6445179370348342
3.2,2.6412658595945686
3.204,2.6324852505058516
3.208,2.6240298491611611
3.212,2.6191517330007628
3.216,2.6266315111133736
3.22,2.6471195989870466
3.224,2.6685833100927994
3.228,2.6838680740620475
3.232,2.6877705669903662
3.236,2.6884209824784193
3.24,2.6890713979664724
3.244,2.6854941127821803
3.248,2.6802907888777554
3.252,2.6825672430859413
3.256,2.6890713979664724
3.26,2.6991528380312957
3.264,2.7007788767514285
3.268,2.706957823887933
3.272,2.7245190420653671
3.276,2.7430558834748808
3.28,2.7544381545158103
3.284,2.7599666861642618
3.288,2.7703733339731116
3.292,2.7778531120857224
3.296,2.7817556050140411
3.3,2.7820808127580676
3.304,2.7827312282461207
3.308,2.7843572669662535
3.312,2.7723245804372709
3.316,2.7518364925635979
3.32,2.7258198730414733
3.324,2.7020797077275347
3.328,2.6757378804613836
3.332,2.6383389898983296
3.336,2.5931351134786382
3.34,2.5505328990111593
3.344,2.5118331774719991
3.348,2.4789871953253169
3.352,2.4562226532434579
3.356,2.4396370582981035
3.36,2.4217506323766429
3.364,2.3957340128545184
3.368,2.3726442630286328
3.372,2.3547578371071722
3.376,2.338822657649871
3.38,2.3251639324007556
3.384,2.3137816613598261
3.388,2.3079279219673481
3.392,2.3007733515987638
3.396,2.290366703789914
3.4,2.2893910805578344
3.404,2.2926431579980999
3.408,2.2906919115339406
3.412,2.287439834093675
3.416,2.2854885876295157
3.42,2.2923179502540734
3.424,2.3001229361107107
3.428,2.304350636783056
3.432,2.301423767086817
3.436,2.2994725206226576
3.44,2.2997977283666842
3.444,2.2965456509264186
3.448,2.290366703789914
3.452,2.2913423270219937
3.456,2.296220443182392
3.46,2.2916675347660203
3.464,2.2747567320766393
3.468,2.2643500842677895
3.472,2.2607727990834974
3.476,2.2679273694520816
3.48,2.2695534081722144
3.484,2.2708542391483206
3.488,2.2802852637250908
3.492,2.290366703789914
3.496,2.2919927425100468
3.5,2.2867894186056219
3.504,2.2841877566534095
3.508,2.2809356792131439
3.512,2.2734559011005331
3.516,2.2692282004281878
3.52,2.27280548561248
3.524,2.2773583940288518
3.528,2.2763827707967721
3.532,2.2718298623804003
3.536,2.2731306933565065
3.54,2.2802852637250908
3.544,2.2822365101892501
3.548,2.2806104714691173
3.552,2.287439834093675
3.556,2.3023993903188966
3.56,2.3082531297113746
3.564,2.3095539606874809
3.568,2.304350636783056
3.572,2.3007733515987638
3.576,2.2942691967182327
3.58,2.2945944044622593
3.584,2.2981716896465514
3.588,2.3069522987352684
3.592,2.316058115568012
3.596,2.3144320768478792
3.6,2.3082531297113746
3.604,2.3027245980629232
3.608,2.2981716896465514
3.612,2.2965456509264186
3.616,2.3027245980629232
3.62,2.318984985264251
3.624,2.3297168408171274
3.628,2.3287412175850477
3.632,2.3245135169127025
3.636,2.3254891401447821
3.64,2.330692464049207
3.644,2.3375218266737647
3.648,2.3378470344177913
3.652,2.3342697492334992
3.656,2.3313428795372602
3.66,2.3284160098410212
3.664,2.3290664253290743
3.668,2.3355705802096054
3.672,2.3362209956976585
3.676,2.3342697492334992
3.68,2.335895787953632
3.684,2.3342697492334992
3.688,2.3300420485611539
3.692,2.3280908020969946
3.696,2.3274403866089415
3.7,2.3336193337454461
3.704,2.3404486963700037
3.708,2.3472780589945614
3.712,2.3459772280184552
3.716,2.3332941260014195
3.72,2.3274403866089415
3.724,2.3339445414894726
3.728,2.3371966189297382
3.732,2.3384974499058444
3.736,2.3440259815542959
3.74,2.347603266738588
3.744,2.3489040977146942
3.748,2.3420747350901365
3.752,2.3368714111857116
3.756,2.3303672563051805
3.76,2.3254891401447821
3.764,2.3199606084963307
3.768,2.3193101930082776
3.772,2.3284160098410212
3.776,2.3397982808819506
3.78,2.3430503583222162
3.784,2.3443511892983224
3.788,2.3472780589945614
3.792,2.344676397042349
3.796,2.3368714111857116
3.8,2.3352453724655788
3.804,2.3433755660662428
3.808,2.3479284744826145
3.812,2.3498797209467739
3.816,2.3557334603392519
3.82,2.3625628229638096
3.824,2.362237615219783
3.828,2.3485788899706677
3.832,2.3319932950253133
3.836,2.3251639324007556
3.84,2.3274403866089415
3.844,2.3407739041140303
3.848,2.3508553441788536
3.852,2.3541074216191191
3.856,2.3580099145474378
3.86,2.3648392771719955
3.864,2.3664653158921283
3.868,2.3755711327248719
3.872,2.3876038192538545
3.876,2.4038642064551823
3.88,2.4126448155438993
3.884,2.4142708542640321
3.888,2.4110187768237665
3.892,2.4054902451753151
3.896,2.4045146219432354
3.9,2.4009373367589433
3.904,2.3924819354142528
3.908,2.3817500798613764
3.912,2.379148417909164
3.916,2.3771971714450046
3.92,2.3768719637009781
3.924,2.3817500798613764
3.928,2.3758963404688984
3.932,2.3677661468682345
3.936,2.3664653158921283
3.94,2.3729694707726594
3.944,2.3775223791890312
3.948,2.3700426010764204
3.952,2.3697173933323938
3.956,2.3758963404688984
3.96,2.3814248721173499
3.964,2.3827257030934561
3.968,2.3837013263255358
3.972,2.3840265340695623
3.976,2.3794736256531905
3.98,2.373294678516686
3.984,2.3723190552846063
3.988,2.3794736256531905
3.992,2.3911811044381466
3.996,2.4419135125062894
4,2.5654924552363809
4.004,2.7788287353178021
4.008,3.039970553771127
4.012,3.2815999075828586
4.016,3.3404625092516653
4.02,3.0269622440100648
4.024,2.4949223747826181
4.028,2.0692254378518555
4.032,1.8942636715655681
4.036,1.9030442806542851
4.04,1.9950780722138006
4.044,2.0958924728620332
4.048,2.1941052115580533
4.052,2.2978464819025248
4.056,2.3866281960217748
4.06,2.4435395512264222
4.064,2.4604503539158031
4.068,2.4542714067792986
4.072,2.4464664209226612
4.076,2.4402874737861566
4.08,2.4331329034175724
4.084,2.4415883047622629
4.088,2.4575234842195641
4.092,2.4702065862365998
4.096,2.4744342869089451
4.1,2.4747594946529716
4.104,2.4711822094686795
4.108,2.4728082481888123
4.112,2.4708570017246529
4.116,2.4669545087963343
4.12,2.4698813784925733
4.124,2.4711822094686795
4.128,2.4698813784925733
4.132,2.4705317939806264
4.136,2.4750847023969982
4.14,2.4760603256290779
4.144,2.4802880263014231
4.148,2.4793124030693434
4.152,2.4802880263014231
4.156,2.4845157269737683
4.16,2.4887434276461136
4.164,2.5079306845436804
4.168,2.5261423182091676
4.172,2.542727913154522
4.176,2.5489068602910265
4.18,2.5398010434582829
4.184,2.5293943956494331
4.188,2.534597719553858
4.192,2.5430531208985485
4.196,2.5443539518746547
4.2,2.5414270821784157
4.204,2.5381750047381502
4.208,2.5375245892500971
4.212,2.5430531208985485
4.216,2.5492320680350531
4.22,2.5667932862124871
4.224,2.5869561663421337
4.228,2.5996392683591694
4.232,2.5996392683591694
4.236,2.6064686309837271
4.24,2.6172004865366034
4.244,2.6240298491611611
4.248,2.6315096272737719
4.252,2.6399650286184624
4.256,2.6510220919153653
4.26,2.66663206362864
4.264,2.6867949437582865
4.268,2.6975267993111629
4.272,2.6900470211985521
4.276,2.6854941127821803
4.28,2.6867949437582865
4.284,2.6906974366866052
4.288,2.6945999296149239
4.292,2.6994780457753222
4.296,2.6988276302872691
4.3,2.6890713979664724
4.304,2.6913478521746583
4.308,2.6929738908947911
4.312,2.6828924508299679
4.316,2.6523229228914715
4.32,2.6185013175127096
4.324,2.5915090747585054
4.328,2.5560614306596108
4.332,2.5225650330248754
4.336,2.4923207128304057
4.34,2.468580547516467
4.344,2.4367101886018645
4.348,2.3999617135268636
4.352,2.3723190552846063
4.356,2.3560586680832785
4.36,2.3450016047863755
4.364,2.3303672563051805
4.368,2.3228874781925697
4.372,2.3196354007523041
4.376,2.3134564536157995
4.38,2.3004481438547373
4.384,2.2900414960458875
4.388,2.2900414960458875
4.392,2.2975212741584983
4.396,2.2978464819025248
4.4,2.2965456509264186
4.404,2.2984968973905779
4.408,2.2984968973905779
4.412,2.296220443182392
4.416,2.296220443182392
4.42,2.2988221051346045
4.424,2.3040254290390294
4.428,2.3128060381277464
4.432,2.32191185496049
4.436,2.3336193337454461
4.44,2.3427251505781896
4.444,2.3511805519228801
4.448,2.3609367842436768
4.452,2.3706930165644735
4.456,2.3739450940047391
4.46,2.3586603300354909
4.464,2.3645140694279689
4.468,2.3853273650456686
4.472,2.4019129599910229
4.476,2.4074414916394744
4.48,2.4188237626804039
4.484,2.4240270865848288
4.488,2.4243522943288554
4.492,2.4256531253049616
4.496,2.4279295795131475
4.5,2.4357345653697848
4.504,2.4370353963458911
4.508,2.439311850554077
4.512,2.4441899667144753
4.516,2.4454907976905815
4.52,2.4419135125062894
4.524,2.4328076956735458
4.528,2.4285799950012006
4.532,2.4256531253049616
4.536,2.4266287485370412
4.54,2.4396370582981035
4.544,2.4584991074516438
4.548,2.4663040933082812
4.552,2.4669545087963343
4.556,2.4689057552604936
4.56,2.4702065862365998
4.564,2.4659788855642546
4.568,2.4695561707485467
4.572,2.4799628185573965
4.576,2.4838653114857152
4.58,2.4734586636768654
4.584,2.4659788855642546
4.588,2.476710741117131
4.592,2.4835401037416887
4.596,2.4711822094686795
4.6,2.4643528468441218
4.604,2.4672797165403608
4.608,2.4734586636768654
4.612,2.4708570017246529
4.616,2.4747594946529716
4.62,2.4841905192297418
4.624,2.500125698687043
4.628,2.5147600471682381
4.632,2.5050038148474414
4.636,2.4906946741102729
4.64,2.4887434276461136
4.644,2.497198828990804
4.648,2.5027273606392555
4.652,2.4962232057587244
4.656,2.4955727902706712
4.66,2.4998004909430165
4.664,2.494271959294565
4.668,2.4981744522228837
4.672,2.4988248677109368
4.676,2.4906946741102729
4.68,2.4880930121580604
4.684,2.4903694663662463
4.688,2.4861417656939011
4.692,2.4848409347177949
4.696,2.4835401037416887
4.7,2.4832148959976621
4.704,2.4845157269737683
4.708,2.4770359488611575
4.712,2.4689057552604936
4.716,2.4659788855642546
4.72,2.468580547516467
4.724,2.4734586636768654
4.728,2.4734586636768654
4.732,2.4757351178850513
4.736,2.4763855333731044
4.74,2.4806132340454496
4.744,2.4773611566051841
4.748,2.4676049242843874
4.752,2.4659788855642546
4.756,2.4646780545881484
4.76,2.4614259771478828
4.764,2.4575234842195641
4.768,2.4571982764755376
4.772,2.4503689138509799
4.776,2.4389866428100504
4.78,2.4328076956735458
4.784,2.4471168364107143
4.788,2.4708570017246529
4.792,2.4841905192297418
4.796,2.4981744522228837
4.8,2.500125698687043
4.804,2.4906946741102729
4.808,2.4939467515505385
4.812,2.5079306845436804
4.816,2.5076054767996538
4.82,2.4955727902706712
4.824,2.494271959294565
4.828,2.4900442586222198
4.832,2.4806132340454496
4.836,2.4802880263014231
4.84,2.4841905192297418
4.844,2.4721578327007592
4.848,2.4633772236120421
4.852,2.4565478609874845
4.856,2.4519949525711127
4.86,2.4519949525711127
4.864,2.4552470300113782
4.868,2.4562226532434579
4.872,2.4558974454994313
4.876,2.4552470300113782
4.88,2.4529705758031923
4.884,2.4532957835472189
4.888,2.4614259771478828
4.892,2.4763855333731044
4.896,2.4897190508781932
4.9,2.4958979980146978
4.904,2.4867921811819542
4.908,2.4711822094686795
4.912,2.4861417656939011
4.916,2.5355733427859377
4.92,2.6497212609392591
4.924,2.8454963228432462
4.928,3.0939550392795354
4.932,3.338511262787506
4.936,3.4682691526541021
4.94,3.2272902143304236
4.944,2.689396605710499
4.948,2.1859750179573894
4.952,1.942719625425525
4.956,1.9355650550569408
4.96,2.0347534169850405
4.964,2.1459744654421229
4.968,2.2536182287149131
4.972,2.3433755660662428
4.976,2.425327917560935
4.98,2.4815888572775293
4.984,2.5206137865607161
4.988,2.5398010434582829
4.992,2.5518337299872655
4.996,2.5635412087722216
5,2.5710209868848324
5.004,2.5762243107892573
5.008,2.5768747262773104
5.012,2.5736226488370448
5.016,2.5755738953012042
5.02,2.5840292966458946
5.024,2.5954115676868241
5.028,2.6074442542158067
5.032,2.6129727858642582
5.036,2.6045173845195677
5.04,2.59768802189501
5.044,2.5911838670144789
5.048,2.5866309585981071
5.052,2.600614891591249
5.056,2.6207777717208955
5.06,2.6285827575775329
5.064,2.6207777717208955
5.068,2.6181761097686831
5.072,2.6250054723932408
5.076,2.6259810956253204
5.08,2.6165500710485503
5.084,2.6211029794649221
5.088,2.6259810956253204
5.092,2.629233173065586
5.096,2.6428918983147014
5.1,2.6536237538675778
5.104,2.6513472996593919
5.108,2.6679328946047463
5.112,2.6754126727173571
5.116,2.6650060249085072
5.12,2.654924584843684
5.124,2.6539489616116043
5.128,2.6640304016764276
5.132,2.6763882959494367
5.136,2.6815916198538616
5.14,2.6942747218708973
5.144,2.7030553309596144
5.148,2.6929738908947911
5.152,2.6858193205262069
5.156,2.6975267993111629
5.16,2.7128115632804111
5.164,2.720941756881075
5.168,2.7118359400483314
5.172,2.7183400949288625
5.176,2.7349256898742169
5.18,2.7508608693315182
5.184,2.7567146087239962
5.188,2.7609423093963414
5.192,2.7752514501335099
5.196,2.7772026965976693
5.2,2.7648448023246601
5.204,2.7697229184850585
5.208,2.7752514501335099
5.212,2.7820808127580676
5.216,2.7765522811096162
5.22,2.7674464642768726
5.224,2.7498852460994385
5.228,2.7329744434100576
5.232,2.7131367710244376
5.236,2.6965511760790832
5.24,2.6780143346695695
5.244,2.6406154441065155
5.248,2.5950863599427976
5.252,2.5482564448029734
5.256,2.5066298535675742
5.26,2.4643528468441218
5.264,2.4259783330489881
5.268,2.3944331818784121
5.272,2.3872786115098279
5.276,2.3840265340695623
5.28,2.3654896926600486
5.284,2.3349201647215523
5.288,2.318984985264251
5.292,2.3095539606874809
5.296,2.290366703789914
5.3,2.2841877566534095
5.304,2.2997977283666842
5.308,2.3202858162403572
5.312,2.3137816613598261
5.316,2.2919927425100468
5.32,2.2724802778684534
5.324,2.2718298623804003
5.328,2.2832121334213298
5.332,2.3004481438547373
5.336,2.3089035451994278
5.34,2.2994725206226576
5.344,2.2880902495817281
5.348,2.2861390031175688
5.352,2.2949196122062858
5.356,2.3079279219673481
5.36,2.2955700276943389
5.364,2.2796348482370377
5.368,2.2825617179332767
5.372,2.3059766755031887
5.376,2.3264647633768618
5.38,2.3310176717932336
5.384,2.3371966189297382
5.388,2.3479284744826145
5.392,2.3355705802096054
5.396,2.3225622704485431
5.4,2.3222370627045166
5.404,2.3238631014246494
5.408,2.3430503583222162
5.412,2.3528065906430129
5.416,2.3511805519228801
5.42,2.3450016047863755
5.424,2.338822657649871
5.428,2.3362209956976585
5.432,2.3365462034416851
5.436,2.3368714111857116
5.44,2.3326437105133664
5.444,2.3414243196020834
5.448,2.3515057596669067
5.452,2.3401234886259772
5.456,2.3345949569775257
5.46,2.3362209956976585
5.464,2.3394730731379241
5.468,2.3498797209467739
5.472,2.3560586680832785
5.476,2.3550830448511988
5.48,2.3472780589945614
5.484,2.3342697492334992
5.488,2.3336193337454461
5.492,2.3365462034416851
5.496,2.3352453724655788
5.5,2.3267899711208884
5.504,2.3215866472164635
5.508,2.3349201647215523
5.512,2.353457006131066
5.516,2.3498797209467739
5.52,2.344676397042349
5.524,2.3456520202744287
5.528,2.3427251505781896
5.532,2.3407739041140303
5.536,2.3326437105133664
5.54,2.3336193337454461
5.544,2.3365462034416851
5.548,2.34174952734611
5.552,2.3440259815542959
5.556,2.3355705802096054
5.56,2.3362209956976585
5.564,2.3492293054587208
5.568,2.3726442630286328
5.572,2.3843517418135889
5.576,2.3758963404688984
5.58,2.3567090835713316
5.584,2.3349201647215523
5.588,2.3183345697761979
5.592,2.3037002212950028
5.596,2.2968708586704452
5.6,2.2919927425100468
5.604,2.2893910805578344
5.608,2.2952448199503124
5.612,2.2971960664144717
5.616,2.2945944044622593
5.62,2.2997977283666842
5.624,2.3059766755031887
5.628,2.3010985593427904
5.632,2.2968708586704452
5.636,2.2971960664144717
5.64,2.3082531297113746
5.644,2.3238631014246494
5.648,2.3371966189297382
5.652,2.3463024357624818
5.656,2.347603266738588
5.66,2.3528065906430129
5.664,2.3567090835713316
5.668,2.3671157313801814
5.672,2.3729694707726594
5.676,2.3716686397965532
5.68,2.3794736256531905
5.684,2.3993112980388105
5.688,2.3902054812060669
5.692,2.3713434320525266
5.696,2.3635384461958893
5.7,2.3547578371071722
5.704,2.34174952734611
5.708,2.3238631014246494
5.712,2.3261395556328353
5.716,2.335895787953632
5.72,2.350530136434827
5.724,2.3632132384518627
5.728,2.3521561751549598
5.732,2.3456520202744287
5.736,2.3489040977146942
5.74,2.3560586680832785
5.744,2.3654896926600486
5.748,2.3609367842436768
5.752,2.3362209956976585
5.756,2.3401234886259772
5.76,2.3576847068034112
5.764,2.3810996643733233
5.768,2.3648392771719955
5.772,2.3687417701003142
5.776,2.4259783330489881
5.78,2.5417522899224423
5.784,2.7472835841472261
5.788,3.0123278955288697
5.792,3.2702176365419291
5.796,3.3918453328078613
5.8,3.1420857853954658
5.804,2.5667932862124871
5.808,2.0428836105857044
5.812,1.79019719347707
5.816,1.8022298800060526
5.82,1.9105240587668959
5.824,2.0334525860089343
5.828,2.1352426098892465
5.832,2.2295528556569479
5.836,2.3167085310560651
5.84,2.3742703017487656
5.844,2.4142708542640321
5.848,2.4406126815301832
5.852,2.4607755616598297
5.856,2.4581738997076172
5.86,2.4477672518987674
5.864,2.4458160054346081
5.868,2.453946199035272
5.872,2.4705317939806264
5.876,2.4747594946529716
5.88,2.4724830404447857
5.884,2.4763855333731044
5.888,2.4744342869089451
5.892,2.4789871953253169
5.896,2.485491350205848
5.9,2.4773611566051841
5.904,2.4776863643492106
5.908,2.4900442586222198
5.912,2.4965484135027509
5.916,2.4978492444788571
5.92,2.482564480509609
5.924,2.4815888572775293
5.928,2.4880930121580604
5.932,2.4890686353901401
5.936,2.4919955050863791
5.94,2.4936215438065119
5.944,2.4910198818542995
5.948,2.4877678044140339
5.952,2.4968736212467775
5.956,2.5098819310078397
5.96,2.5131340084481053
5.964,2.4939467515505385
5.968,2.4929711283184588
5.972,2.5059794380795211
5.976,2.5219146175368223
5.98,2.5310204343695659
5.984,2.5443539518746547
5.988,2.5450043673627079
5.992,2.5437035363866016
5.996,2.5528093532193452
6,2.5547605996835046
6.004,2.5570370538916904
6.008,2.5723218178609386
6.012,2.5921594902465586
6.016,2.6217533949529752
6.02,2.6383389898983296
6.024,2.6279323420894798
6.028,2.6282575498335063
6.032,2.6383389898983296
6.036,2.6464691834989935
6.04,2.6682581023487728
6.044,2.6793151656456757
6.048,2.6825672430859413
6.052,2.7027301232155878
6.056,2.7310231969458982
6.06,2.7254946652974468
6.064,2.7173644716967829
6.068,2.7134619787684642
6.072,2.7306979892018717
6.076,2.7391533905465622
6.08,2.7261450807854999
6.084,2.7079334471200127
6.088,2.6887461902224459
6.092,2.6627295707003213
6.096,2.6370381589222234
6.1,2.5950863599427976
6.104,2.551508522243239
6.108,2.5124835929600522
6.112,2.4760603256290779
6.116,2.4279295795131475
6.12,2.3944331818784121
6.124,2.3778475869330578
6.128,2.3515057596669067
6.132,2.3108547916635871
6.136,2.310204376175534
6.14,2.2994725206226576
6.144,2.2711794468923472
6.148,2.2614232145715505
6.152,2.2597971758514177
6.156,2.2597971758514177
6.16,2.2493905280425679
6.164,2.2451628273702227
6.168,2.2549190596910194
6.172,2.2623988378036302
6.176,2.2578459293872584
6.18,2.2373578415135853
6.184,2.2305284788890276
6.188,2.2419107499299571
6.192,2.2695534081722144
6.196,2.281586094701197
6.2,2.2682525771961082
6.204,2.2663013307319488
6.208,2.2802852637250908
6.212,2.2783340172609314
6.216,2.2760575630527455
6.22,2.2841877566534095
6.224,2.3030498058069497
6.228,2.3144320768478792
6.232,2.318984985264251
6.236,2.304350636783056
6.24,2.2997977283666842
6.244,2.3079279219673481
6.248,2.318984985264251
6.252,2.3297168408171274
6.256,2.3287412175850477
6.26,2.330692464049207
6.264,2.3274403866089415
6.268,2.324838724656729
6.272,2.3375218266737647
6.276,2.3472780589945614
6.28,2.3391478653938975
6.284,2.3355705802096054
6.288,2.3362209956976585
6.292,2.3287412175850477
6.296,2.3199606084963307
6.3,2.3173589465441182
6.304,2.3212614394724369
6.308,2.344676397042349
6.312,2.3557334603392519
6.316,2.3550830448511988
6.32,2.3466276435065083
6.324,2.3319932950253133
6.328,2.324838724656729
6.332,2.3345949569775257
6.336,2.3316680872812867
6.34,2.3115052071516402
6.344,2.3007733515987638
6.348,2.3069522987352684
6.352,2.3371966189297382
6.356,2.3576847068034112
6.36,2.3541074216191191
6.364,2.3469528512505349
6.368,2.3492293054587208
6.372,2.3420747350901365
6.376,2.3316680872812867
6.38,2.3300420485611539
6.384,2.3313428795372602
6.388,2.3326437105133664
6.392,2.3430503583222162
6.396,2.3554082525952253
6.4,2.3801240411412437
6.404,2.3960592205985449
6.408,2.3882542347419076
6.412,2.3817500798613764
6.416,2.3853273650456686
6.42,2.3768719637009781
6.424,2.3632132384518627
6.428,2.359310745523544
6.432,2.3739450940047391
6.436,2.382075287605403
6.44,2.3768719637009781
6.444,2.3755711327248719
6.448,2.3700426010764204
6.452,2.3635384461958893
6.456,2.3677661468682345
6.46,2.3768719637009781
6.464,2.4067910761514213
6.468,2.4263035407930147
6.472,2.4246775020728819
6.476,2.4240270865848288
6.48,2.4305312414653599
6.484,2.4516697448270861
6.488,2.4519949525711127
6.492,2.4331329034175724
6.496,2.416547308472218
6.5,2.4012625445029698
6.504,2.3993112980388105
6.508,2.4032137909671292
6.512,2.4285799950012006
6.516,2.4350841498817317
6.52,2.4259783330489881
6.524,2.4061406606633682
6.528,2.407766699383501
6.532,2.4123196077998728
6.536,2.4067910761514213
6.54,2.4051650374312885
6.544,2.4132952310319524
6.548,2.4184985549363773
6.552,2.4350841498817317
6.556,2.431181656953413
6.56,2.4097179458476603
6.564,2.4054902451753151
6.568,2.4188237626804039
6.572,2.4214254246326163
6.576,2.4214254246326163
6.58,2.4233766710967757
6.584,2.4347589421377052
6.588,2.4471168364107143
6.592,2.4565478609874845
6.596,2.5176869168644771
6.6,2.6646808171644807
6.604,2.9017572625598405
6.608,3.1840375843748916
6.612,3.4107073819614016
6.616,3.387617632135516
6.62,2.968099642341258
6.624,2.3342697492334992
6.628,1.9062963580945507
6.632,1.7866199082927778
6.636,1.8503606261219829
6.64,1.9719883223879151
6.644,2.0988193425582722
6.648,2.2074387290631421
6.652,2.2893910805578344
6.656,2.3531317983870395
6.66,2.4149212697520852
6.664,2.445165589946555
6.668,2.462726808123989
6.672,2.4594747306837235
6.676,2.4624016003799625
6.68,2.4676049242843874
6.684,2.4659788855642546
6.688,2.4789871953253169
6.692,2.4958979980146978
6.696,2.5105323464958929
6.7,2.4981744522228837
6.704,2.500125698687043
6.708,2.5264675259531941
6.712,2.5352481350419112
6.716,2.525817110465141
6.72,2.5251666949770879
6.724,2.5306952266255394
6.728,2.5391506279702298
6.732,2.5388254202262033
6.736,2.5414270821784157
6.74,2.5479312370589469
6.744,2.5580126771237701
6.748,2.5645168320043012
6.752,2.5651672474923544
6.756,2.566142870724434
6.76,2.5635412087722216
6.764,2.5700453636527527
6.768,2.5902082437823992
6.772,2.6110215394000988
6.776,2.5973628141509835
6.78,2.5866309585981071
6.784,2.5941107367107179
6.788,2.5957367754308507
6.792,2.611671954888152
6.796,2.6311844195297454
6.8,2.6396398208744358
6.804,2.6409406518505421
6.808,2.6399650286184624
6.812,2.6588270777720027
6.816,2.6734614262531977
6.82,2.6467943912430201
6.824,2.6415910673385952
6.828,2.6464691834989935
6.832,2.6532985461235512
6.836,2.6650060249085072
6.84,2.6802907888777554
6.844,2.692323475406738
6.848,2.6968763838231098
6.852,2.7020797077275347
6.856,2.7287467427377123
6.86,2.7381777673144825
6.864,2.7274459117616061
6.868,2.7154132252326235
6.872,2.7261450807854999
6.876,2.7570398164680228
6.88,2.7749262423894834
6.884,2.7645195945806336
6.888,2.752486908051651
6.892,2.764194386836607
6.896,2.7557389854919165
6.9,2.7479339996352792
6.904,2.7329744434100576
6.908,2.7004536690074019
6.912,2.6656564403965604
6.916,2.6399650286184624
6.92,2.6025661380554084
6.924,2.5472808215708937
6.928,2.4926459205744322
6.932,2.4601251461717766
6.936,2.4409378892742097
6.94,2.4207750091445632
6.944,2.385002157301642
6.948,2.338822657649871
6.952,2.3098791684315074
6.956,2.3066270909912419
6.96,2.2984968973905779
6.964,2.2809356792131439
6.968,2.2789844327489845
6.972,2.2689029926841613
6.976,2.2552442674350459
6.98,2.2428863731620368
6.984,2.2438619963941164
6.988,2.238333464745665
6.992,2.238333464745665
6.996,2.227276401448762
7,2.2158941304078326
7.004,2.2282520246808417
7.008,2.2389838802337181
7.012,2.2393090879777446
7.016,2.2406099189538509
7.02,2.2513417745067272
7.024,2.2532930209708866
7.028,2.2432115809060633
7.032,2.2266259859607089
7.036,2.2295528556569479
7.04,2.2406099189538509
7.044,2.2461384506023023
7.048,2.2406099189538509
7.052,2.2428863731620368
7.056,2.2555694751790725
7.06,2.2711794468923472
7.064,2.2536182287149131
7.068,2.2370326337695587
7.072,2.2415855421859305
7.076,2.241260334441904
7.08,2.238333464745665
7.084,2.2506913590186741
7.088,2.2516669822507538
7.092,2.2370326337695587
7.096,2.227276401448762
7.1,2.2181705846160185
7.104,2.2341057640733197
7.108,2.2490653202985413
7.112,2.2474392815784086
7.116,2.2331301408412401
7.12,2.2266259859607089
7.124,2.2259755704726558
7.128,2.2249999472405761
7.132,2.2236991162644699
7.136,2.2334553485852666
7.14,2.2334553485852666
7.144,2.2318293098651338
7.148,2.2331301408412401
7.152,2.2484149048104882
7.156,2.2409351266978774
7.16,2.2289024401688948
7.164,2.2302032711450011
7.168,2.2344309718173463
7.172,2.2409351266978774
7.176,2.2289024401688948
7.18,2.2188210001040716
7.184,2.224349531752523
7.188,2.2302032711450011
7.192,2.2311788943770807
7.196,2.2337805563292932
7.2,2.2276016091927886
7.204,2.2246747394965496
7.208,2.2188210001040716
7.212,2.2165445458958857
7.216,2.2279268169368152
7.22,2.241260334441904
7.224,2.2477644893224351
7.228,2.2454880351142492
7.232,2.224349531752523
7.236,2.2093899755273014
7.24,2.2051622748549562
7.244,2.2269511937047355
7.248,2.2223982852883637
7.252,2.1947556270461064
7.256,2.1999589509505313
7.26,2.2152437149197794
7.264,2.2132924684556201
7.268,2.2080891445511952
7.272,2.2149185071757529
7.276,2.2302032711450011
7.28,2.2302032711450011
7.284,2.2230487007764168
7.288,2.2279268169368152
7.292,2.2367074260255322
7.296,2.241260334441904
7.3,2.2506913590186741
7.304,2.2562198906671256
7.308,2.2718298623804003
7.312,2.2799600559810642
7.316,2.2633744610357098
7.32,2.2337805563292932
7.324,2.1989833277184516
7.328,2.2032110283907969
7.332,2.2259755704726558
7.336,2.2380082570016384
7.34,2.2321545176091604
7.344,2.2236991162644699
7.348,2.2276016091927886
7.352,2.2178453768719919
7.356,2.2165445458958857
7.36,2.2240243240084965
7.364,2.2227234930323903
7.368,2.2263007782166824
7.372,2.2461384506023023
7.376,2.2438619963941164
7.38,2.2396342957217712
7.384,2.2464636583463289
7.388,2.2663013307319488
7.392,2.2783340172609314
7.396,2.3414243196020834
7.4,2.4916702973423526
7.404,2.7316736124339513
7.408,3.0207832968735602
7.412,3.2572093267808668
7.416,3.2217616826819722
7.42,2.7726497881812975
7.424,2.1765439933806192
7.428,1.7628797429788392
7.432,1.6145850117027294
7.436,1.6623905500746332
7.44,1.8061323729343712
7.444,1.9667849984834902
7.448,2.0822337476129178
7.452,2.181096901796991
7.456,2.2578459293872584
7.46,2.3040254290390294
7.464,2.3251639324007556
7.468,2.3316680872812867
7.472,2.3469528512505349
7.476,2.3641888616839424
7.48,2.356383875827305
7.484,2.3635384461958893
7.488,2.3827257030934561
7.492,2.4080919071275275
7.496,2.416547308472218
7.5,2.4071162838954479
7.504,2.413620438775979
7.508,2.4321572801854927
7.512,2.4409378892742097
7.516,2.4425639279943425
7.52,2.4493932906189002
7.524,2.4663040933082812
7.528,2.4747594946529716
7.532,2.4724830404447857
7.536,2.4783367798372637
7.54,2.4932963360624854
7.544,2.5066298535675742
7.548,2.5163860858883709
7.552,2.5329716808337253
7.556,2.5502076912671328
7.56,2.5433783286425751
7.564,2.5424027054104954
7.568,2.5563866384036373
7.572,2.5758991030452307
7.576,2.5908586592704523
7.58,2.5989888528711163
7.584,2.5937855289666913
7.588,2.6002896838472225
7.592,2.6077694619598333
7.596,2.614598824584391
7.6,2.6230542259290814
7.604,2.6331356659939047
7.608,2.6363877434341703
7.612,2.6308592117857188
7.616,2.6367129511781968
7.62,2.6627295707003213
7.624,2.6757378804613836
7.628,2.6786647501576226
7.632,2.6932990986388177
7.636,2.698177214799216
7.64,2.6968763838231098
7.644,2.7089090703520924
7.648,2.7521617003076244
7.652,2.781105189525988
7.656,2.7850076824543066
7.66,2.7892353831266519
7.664,2.7814303972700145
7.668,2.7924874605669174
7.672,2.8071218090481125
7.676,2.8077722245361656
7.68,2.8207805342972279
7.684,2.827284689177759
7.688,2.827284689177759
7.692,2.8191544955770951
7.696,2.7993168231914751
7.7,2.7934630837989971
7.704,2.7833816437341738
7.708,2.7511860770755447
7.712,2.7167140562087297
7.716,2.6828924508299679
7.72,2.6711849720450118
7.724,2.6318348350177985
7.728,2.5658176629804075
7.732,2.5154104626562912
7.736,2.4786619875812903
7.74,2.4682553397724405
7.744,2.4617511848919094
7.748,2.4308564492093865
7.752,2.3911811044381466
7.756,2.3576847068034112
7.76,2.3397982808819506
7.764,2.3371966189297382
7.768,2.3456520202744287
7.772,2.3498797209467739
7.776,2.3384974499058444
7.78,2.3319932950253133
7.784,2.3297168408171274
7.788,2.3287412175850477
7.792,2.3316680872812867
7.796,2.3378470344177913
7.8,2.3430503583222162
7.804,2.3463024357624818
7.808,2.3518309674109332
7.812,2.3515057596669067
7.816,2.3489040977146942
7.82,2.3466276435065083
7.824,2.335895787953632
7.828,2.3407739041140303
7.832,2.3430503583222162
7.836,2.3508553441788536
7.84,2.3554082525952253
7.844,2.3625628229638096
7.848,2.3671157313801814
7.852,2.3677661468682345
7.856,2.3713434320525266
7.86,2.3648392771719955
7.864,2.3661401081481017
7.868,2.3749207172368187
7.872,2.3882542347419076
7.876,2.4051650374312885
7.88,2.4002869212708902
7.884,2.3784980024211109
7.888,2.3706930165644735
7.892,2.385002157301642
7.896,2.4061406606633682
7.9,2.4132952310319524
7.904,2.4087423226155806
7.908,2.4204498014005367
7.912,2.4181733471923508
7.916,2.4032137909671292
7.92,2.3950835973664653
7.924,2.4025633754790761
7.928,2.4158968929841649
7.932,2.4204498014005367
7.936,2.4158968929841649
7.94,2.4067910761514213
7.944,2.3976852593186777
7.948,2.3892298579739872
7.952,2.3957340128545184
7.956,2.4110187768237665
7.96,2.4149212697520852
7.964,2.4058154529193416
7.968,2.4006121290149167
7.972,2.4084171148715541
7.976,2.4220758401206695
7.98,2.4214254246326163
7.984,2.4100431535916869
7.988,2.4032137909671292
7.992,2.4041894141992088
7.996,2.4045146219432354
8,2.4041894141992088
8.004,2.4035389987111557
8.008,2.3950835973664653
8.012,2.3898802734620403
8.016,2.3918315199261997
8.02,2.3973600515746512
8.024,2.4035389987111557
8.028,2.3931323509023059
8.032,2.3902054812060669
8.036,2.3986608825507574
8.04,2.4002869212708902
8.044,2.4038642064551823
8.048,2.4035389987111557
8.052,2.4116691923118196
8.056,2.4285799950012006
8.06,2.4285799950012006
8.064,2.416547308472218
8.068,2.4168725162162445
8.072,2.4263035407930147
8.076,2.4279295795131475
8.08,2.4230514633527491
8.084,2.4263035407930147
8.088,2.442238720250316
8.092,2.4409378892742097
8.096,2.4243522943288554
8.1,2.4246775020728819
8.104,2.4292304104892537
8.108,2.4344337343936786
8.112,2.4315068646974396
8.116,2.4168725162162445
8.12,2.407766699383501
8.124,2.416547308472218
8.128,2.425327917560935
8.132,2.4214254246326163
8.136,2.4126448155438993
8.14,2.4097179458476603
8.144,2.4097179458476603
8.148,2.4054902451753151
8.152,2.3983356748067308
8.156,2.413620438775979
8.16,2.4201245936565101
8.164,2.4272791640250944
8.168,2.4328076956735458
8.172,2.4233766710967757
8.176,2.4123196077998728
8.18,2.4100431535916869
8.184,2.4285799950012006
8.188,2.4776863643492106
8.192,2.5778503495093901
8.196,2.770048126229085
8.2,3.0494015783478972
8.204,3.3359096008352935
8.208,3.5111965748656075
8.212,3.30696611161693
8.216,2.7271207040175796
8.22,2.1599583984352648
8.224,1.8793041153403465
8.228,1.8513362493540626
8.232,1.9550775196985342
8.236,2.0936160186538473
8.24,2.2165445458958857
8.244,2.3202858162403572
8.248,2.3963844283425715
8.252,2.4487428751308471
8.256,2.4903694663662463
8.26,2.5137844239361584
8.264,2.5160608781443443
8.268,2.517036501376424
8.272,2.5124835929600522
8.276,2.5196381633286364
8.28,2.5215894097927958
8.284,2.5274431491852738
8.288,2.5398010434582829
8.292,2.5534597687073983
8.296,2.5505328990111593
8.3,2.5450043673627079
8.304,2.5476060293149203
8.308,2.5609395468200091
8.312,2.5651672474923544
8.316,2.5593135080998763
8.32,2.563216001028195
8.324,2.5658176629804075
8.328,2.580126803717576
8.332,2.5905334515264258
8.336,2.59768802189501
8.34,2.5928099057346117
8.344,2.594761152198771
8.348,2.594761152198771
8.352,2.5944359444547445
8.356,2.6028913457994349
8.36,2.6100459161680192
8.364,2.6224038104410283
8.368,2.6399650286184624
8.372,2.6555750003317371
8.376,2.6536237538675778
8.38,2.6526481306354981
8.384,2.6581766622839496
8.388,2.6510220919153653
8.392,2.6419162750826217
8.396,2.6337860814819578
8.4,2.6318348350177985
8.404,2.651997715147445
8.408,2.6676076868607197
8.412,2.6702093488129321
8.416,2.6728110107651446
8.42,2.6767135036934633
8.424,2.6773639191815164
8.428,2.6962259683350567
8.432,2.7004536690074019
8.436,2.7014292922394816
8.44,2.7017544999835081
8.444,2.704030954191694
8.448,2.715088017488597
8.452,2.7274459117616061
8.456,2.729722365969792
8.46,2.7336248588981107
8.464,2.7433810912189074
8.468,2.7550885700038634
8.472,2.7687472952529788
8.476,2.7638691790925805
8.48,2.7492348306113854
8.484,2.7391533905465622
8.488,2.7417550524987746
8.492,2.7424054679868277
8.496,2.7323240279220045
8.5,2.7183400949288625
8.504,2.6942747218708973
8.508,2.6620791552122682
8.512,2.6158996555604972
8.516,2.5641916242602747
8.52,2.5209389943047427
8.524,2.488418219902087
8.528,2.4389866428100504
8.532,2.3918315199261997
8.536,2.3628880307078362
8.54,2.3394730731379241
8.544,2.3170337388000917
8.548,2.3017489748308435
8.552,2.2936187812301796
8.556,2.2854885876295157
8.56,2.2799600559810642
8.564,2.2783340172609314
8.568,2.2718298623804003
8.572,2.2679273694520816
8.576,2.2705290314042941
8.58,2.2643500842677895
8.584,2.2653257074998692
8.588,2.2685777849401347
8.592,2.2640248765237629
8.596,2.2571955138992053
8.6,2.2679273694520816
8.604,2.2789844327489845
8.608,2.2822365101892501
8.612,2.275732355308719
8.616,2.2666265384759754
8.62,2.2643500842677895
8.624,2.2767079785407986
8.628,2.2919927425100468
8.632,2.3023993903188966
8.636,2.3111799994076136
8.64,2.3027245980629232
8.644,2.2942691967182327
8.648,2.2919927425100468
8.652,2.2978464819025248
8.656,2.3056514677591622
8.66,2.3163833233120386
8.664,2.3245135169127025
8.668,2.3310176717932336
8.672,2.3310176717932336
8.676,2.3329689182573929
8.68,2.327765594352968
8.684,2.3222370627045166
8.688,2.3222370627045166
8.692,2.3352453724655788
8.696,2.3498797209467739
8.7,2.3596359532675706
8.704,2.3658149004040752
8.708,2.3713434320525266
8.712,2.3697173933323938
8.716,2.3635384461958893
8.72,2.3661401081481017
8.724,2.3745955094927922
8.728,2.3726442630286328
8.732,2.3615871997317299
8.736,2.3609367842436768
8.74,2.3596359532675706
8.744,2.3567090835713316
8.748,2.3502049286908004
8.752,2.3469528512505349
8.756,2.3570342913153581
8.76,2.3645140694279689
8.764,2.3615871997317299
8.768,2.353457006131066
8.772,2.3469528512505349
8.776,2.3541074216191191
8.78,2.3589855377795175
8.784,2.356383875827305
8.788,2.3560586680832785
8.792,2.3635384461958893
8.796,2.3635384461958893
8.8,2.3615871997317299
8.804,2.3667905236361548
8.808,2.3554082525952253
8.812,2.3423999428341631
8.816,2.3433755660662428
8.82,2.3479284744826145
8.824,2.3518309674109332
8.828,2.3521561751549598
8.832,2.3469528512505349
8.836,2.3508553441788536
8.84,2.3515057596669067
8.844,2.3544326293631457
8.848,2.3619124074757565
8.852,2.3612619919877034
8.856,2.3583351222914644
8.86,2.3537822138750926
8.864,2.3482536822266411
8.868,2.3443511892983224
8.872,2.3397982808819506
8.876,2.3407739041140303
8.88,2.3469528512505349
8.884,2.3502049286908004
8.888,2.3524813828989863
8.892,2.3580099145474378
8.896,2.3596359532675706
8.9,2.3576847068034112
8.904,2.3619124074757565
8.908,2.379148417909164
8.912,2.3928071431582794
8.916,2.4090675303596072
8.92,2.419474178168457
8.924,2.4204498014005367
8.928,2.4152464774961118
8.932,2.4080919071275275
8.936,2.4002869212708902
8.94,2.4002869212708902
8.944,2.399636505782837
8.948,2.4025633754790761
8.952,2.404839829687262
8.956,2.4058154529193416
8.96,2.3976852593186777
8.964,2.385002157301642
8.968,2.3690669778443407
8.972,2.3641888616839424
8.976,2.3807744566292968
8.98,2.4022381677350495
8.984,2.4084171148715541
8.988,2.4087423226155806
8.992,2.4129700232879259
8.996,2.4097179458476603
9,2.4097179458476603
9.004,2.4110187768237665
9.008,2.4119944000558462
9.012,2.4158968929841649
9.016,2.4149212697520852
9.02,2.4100431535916869
9.024,2.4149212697520852
9.028,2.4266287485370412
9.032,2.4666293010523077
9.036,2.5752486875571776
9.04,2.7902110063587315
9.044,3.0903777540952433
9.048,3.3843655546952505
9.052,3.5492458809167147
9.056,3.3144458897295408
9.06,2.7245190420653671
9.064,2.1599583984352648
9.068,1.8962149180297274
9.072,1.8741007914359216
9.076,1.9726387378759682
9.08,2.0910143567016348
9.084,2.2090647677832749
9.088,2.3280908020969946
9.092,2.4097179458476603
9.096,2.4383362273219973
9.1,2.4458160054346081
9.104,2.4571982764755376
9.108,2.4773611566051841
9.112,2.4945971670385916
9.116,2.4991500754549634
9.12,2.500125698687043
9.124,2.500125698687043
9.128,2.4968736212467775
9.132,2.4978492444788571
9.136,2.5040281916153617
9.14,2.5069550613116007
9.144,2.5027273606392555
9.148,2.4975240367348306
9.152,2.5024021528952289
9.156,2.5063046458235476
9.16,2.5115079697279725
9.164,2.5079306845436804
9.168,2.5072802690556273
9.172,2.5154104626562912
9.176,2.5342725118098315
9.18,2.5450043673627079
9.184,2.5443539518746547
9.188,2.5388254202262033
9.192,2.5381750047381502
9.196,2.5459799905947875
9.2,2.5606143390759826
9.204,2.5768747262773104
9.208,2.5794763882295229
9.212,2.5700453636527527
9.216,2.5576874693797436
9.22,2.5638664165162481
9.224,2.5846797121339478
9.228,2.6025661380554084
9.232,2.6126475781202316
9.236,2.6126475781202316
9.24,2.6080946697038598
9.244,2.6064686309837271
9.248,2.6123223703762051
9.252,2.6276071343454532
9.256,2.6419162750826217
9.26,2.646143975754967
9.264,2.6474448067310732
9.268,2.6484204299631529
9.272,2.649070845451206
9.276,2.6568758313078433
9.28,2.6770387114374898
9.284,2.7017544999835081
9.288,2.7163888484647032
9.292,2.7251694575534202
9.296,2.7264702885295264
9.3,2.7284215349936858
9.304,2.7293971582257655
9.308,2.732649235666031
9.312,2.7365517285943497
9.316,2.7463079609151464
9.32,2.7638691790925805
9.324,2.7713489572051913
9.328,2.7638691790925805
9.332,2.7537877390277572
9.336,2.7463079609151464
9.34,2.7336248588981107
9.344,2.7079334471200127
9.348,2.6809412043658085
9.352,2.6448431447788607
9.356,2.6087450851919129
9.36,2.5697201559087262
9.364,2.5222398252808489
9.368,2.4741090791649185
9.372,2.4259783330489881
9.376,2.3824004953494295
9.38,2.3466276435065083
9.384,2.3254891401447821
9.388,2.3137816613598261
9.392,2.2880902495817281
9.396,2.2552442674350459
9.4,2.2276016091927886
9.404,2.2181705846160185
9.408,2.2103655987593811
9.412,2.2002841586945578
9.416,2.1957312502781861
9.42,2.1921539650938939
9.424,2.1931295883259736
9.428,2.1954060425341595
9.432,2.1924791728379205
9.436,2.186950641189469
9.44,2.1797960708208848
9.444,2.1677633842919022
9.448,2.1563811132509727
9.452,2.1557306977629196
9.456,2.1625600603874773
9.46,2.1667877610598225
9.464,2.1674381765478756
9.468,2.1674381765478756
9.472,2.1599583984352648
9.476,2.1508525816025212
9.48,2.1541046590427868
9.484,2.1658121378277428
9.488,2.1843489792372566
9.492,2.1944304193020798
9.496,2.1892270953976549
9.5,2.1849993947253097
9.504,2.1941052115580533
9.508,2.2006093664385844
9.512,2.2019101974146906
9.516,2.1967068735102657
9.52,2.2015849896706641
9.524,2.212642052967567
9.528,2.2197966233361512
9.532,2.2263007782166824
9.536,2.2201218310801778
9.54,2.2162193381518591
9.544,2.2152437149197794
9.548,2.2178453768719919
9.552,2.221422662056284
9.556,2.2197966233361512
9.56,2.2158941304078326
9.564,2.2074387290631421
9.568,2.1986581199744251
9.572,2.1872758489334956
9.576,2.1762187856365927
9.58,2.1690642152680084
9.584,2.1726415004523005
9.588,2.1836985637492035
9.592,2.1950808347901329
9.596,2.2051622748549562
9.6,2.2041866516228765
9.604,2.2006093664385844
9.608,2.2025606129027437
9.612,2.2064631058310624
9.616,2.2191462078480981
9.62,2.2363822182815056
9.624,2.25296781322686
9.628,2.2539434364589397
9.632,2.2497157357865945
9.636,2.2506913590186741
9.64,2.2565450984111521
9.644,2.2692282004281878
9.648,2.2822365101892501
9.652,2.293293573486153
9.656,2.3023993903188966
9.66,2.3037002212950028
9.664,2.2942691967182327
9.668,2.2887406650697812
9.672,2.2929683657421265
9.676,2.3076027142233215
9.68,2.3206110239843838
9.684,2.327765594352968
9.688,2.3316680872812867
9.692,2.3235378936806228
9.696,2.3137816613598261
9.7,2.318984985264251
9.704,2.3280908020969946
9.708,2.3430503583222162
9.712,2.3524813828989863
9.716,2.3635384461958893
9.72,2.3716686397965532
9.724,2.3697173933323938
9.728,2.3612619919877034
9.732,2.3586603300354909
9.736,2.3641888616839424
9.74,2.3690669778443407
9.744,2.376221548212925
9.748,2.3801240411412437
9.752,2.3889046502299607
9.756,2.4002869212708902
9.76,2.4041894141992088
9.764,2.3993112980388105
9.768,2.3898802734620403
9.772,2.3915063121821731
9.776,2.4071162838954479
9.78,2.4181733471923508
9.784,2.4266287485370412
9.788,2.4363849808578379
9.792,2.4373606040899176
9.796,2.4331329034175724
9.8,2.4334581111615989
9.804,2.4493932906189002
9.808,2.473783871420892
9.812,2.4923207128304057
9.816,2.500125698687043
9.82,2.5033777761273086
9.824,2.5089063077757601
9.828,2.5196381633286364
9.832,2.5264675259531941
9.836,2.5271179414412472
9.84,2.5180121246085037
9.844,2.5160608781443443
9.848,2.5163860858883709
9.852,2.5147600471682381
9.856,2.5173617091204505
9.86,2.5105323464958929
9.864,2.4984996599669103
9.868,2.4871173889259808
9.872,2.4832148959976621
9.876,2.4789871953253169
9.88,2.4809384417894762
9.884,2.4851661424618214
9.888,2.491345089598326
9.892,2.4916702973423526
9.896,2.4932963360624854
9.9,2.4932963360624854
9.904,2.4887434276461136
9.908,2.482564480509609
9.912,2.4757351178850513
9.916,2.4747594946529716
9.92,2.4858165579498746
9.924,2.4897190508781932
9.928,2.4851661424618214
9.932,2.4893938431341667
9.936,2.5007761141750962
9.94,2.5326464730896987
9.944,2.6181761097686831
9.948,2.7915118373348378
9.952,3.065661965549225
9.956,3.3694059984700289
9.96,3.6003034967288841
9.964,3.4890824482718017
9.968,3.0032220786961261
9.972,2.4350841498817317
9.976,2.0874370715173427
9.98,1.9921512025175616
9.984,2.0506885964423418
9.988,2.1658121378277428
9.992,2.2741063165885862
9.996,2.3814248721173499
10,2.4679301320284139
10.004,2.5206137865607161
10.008,2.5495572757790796
10.012,2.5651672474923544
10.016,2.588907412806293
10.02,2.6097207084239926
10.024,2.6165500710485503
10.028,2.6123223703762051
10.032,2.6158996555604972
10.036,2.6282575498335063
10.04,2.6386641976423562
10.044,2.6471195989870466
10.048,2.6594774932600558
10.052,2.6780143346695695
10.056,2.6887461902224459
10.06,2.689396605710499
10.064,2.692323475406738
10.068,2.701104084495455
10.072,2.7141123942565173
10.076,2.7124863555363845
10.08,2.7102099013281986
10.084,2.7160636407206766
10.088,2.7287467427377123
10.092,2.7404542215226684
10.096,2.73557610536227
10.1,2.7222425878571812
10.104,2.7128115632804111
10.108,2.7105351090722252
10.112,2.6988276302872691
10.116,2.6858193205262069
10.12,2.6780143346695695
10.124,2.6734614262531977
10.128,2.6646808171644807
10.132,2.6510220919153653
10.136,2.6467943912430201
10.14,2.646143975754967
10.144,2.6513472996593919
10.148,2.6542741693556309
10.152,2.6526481306354981
10.156,2.6497212609392591
10.16,2.6432171060587279
10.164,2.6386641976423562
10.168,2.646143975754967
10.172,2.6568758313078433
10.176,2.6659816481405869
10.18,2.6718353875330649
10.184,2.6815916198538616
10.188,2.6861445282702334
10.192,2.6822420353419147
10.196,2.6832176585739944
10.2,2.692323475406738
10.204,2.7128115632804111
10.208,2.7264702885295264
10.212,2.7293971582257655
10.216,2.7277711195056327
10.22,2.729722365969792
10.224,2.7310231969458982
10.228,2.7219173801131546
10.232,2.715088017488597
10.236,2.7173644716967829
10.24,2.7284215349936858
10.244,2.7346004821301904
10.248,2.7277711195056327
10.252,2.7134619787684642
10.256,2.6906974366866052
10.26,2.6588270777720027
10.264,2.6282575498335063
10.268,2.5950863599427976
10.272,2.5541101841954514
10.276,2.5121583852160256
10.28,2.4711822094686795
10.284,2.4308564492093865
10.288,2.396709636086598
10.292,2.3690669778443407
10.296,2.344676397042349
10.3,2.3209362317284103
10.304,2.2981716896465514
10.308,2.2737811088445596
10.312,2.2584963448753115
10.316,2.2503661512746476
10.32,2.2477644893224351
10.324,2.2464636583463289
10.328,2.2373578415135853
10.332,2.2292276479129214
10.336,2.2311788943770807
10.34,2.2315041021211073
10.344,2.2259755704726558
10.348,2.2253251549846027
10.352,2.2315041021211073
10.356,2.2344309718173463
10.36,2.2363822182815056
10.364,2.238333464745665
10.368,2.2415855421859305
10.372,2.2360570105374791
10.376,2.2315041021211073
10.38,2.2331301408412401
10.384,2.2279268169368152
10.388,2.2207722465682309
10.392,2.215568922663806
10.396,2.2132924684556201
10.4,2.2188210001040716
10.404,2.2334553485852666
10.408,2.2422359576739836
10.412,2.2337805563292932
10.416,2.2249999472405761
10.42,2.2256503627286293
10.424,2.238333464745665
10.428,2.247114073834382
10.432,2.2581711371312849
10.436,2.2702038236602675
10.44,2.2741063165885862
10.444,2.2702038236602675
10.448,2.2682525771961082
10.452,2.2682525771961082
10.456,2.2724802778684534
10.46,2.2806104714691173
10.464,2.290366703789914
10.468,2.2991473128786311
10.472,2.301423767086817
10.476,2.2936187812301796
10.48,2.2851633798854891
10.484,2.2864642108615953
10.488,2.2945944044622593
10.492,2.3050010522711091
10.496,2.3056514677591622
10.5,2.3115052071516402
10.504,2.3137816613598261
10.508,2.3144320768478792
10.512,2.3066270909912419
10.516,2.3020741825748701
10.52,2.307277506479295
10.524,2.3121556226396933
10.528,2.3137816613598261
10.532,2.3111799994076136
10.536,2.3095539606874809
10.54,2.3063018832472153
10.544,2.3017489748308435
10.548,2.2965456509264186
10.552,2.3027245980629232
10.556,2.3095539606874809
10.56,2.3108547916635871
10.564,2.3027245980629232
10.568,2.3033750135509763
10.572,2.3173589465441182
10.576,2.3267899711208884
10.58,2.324838724656729
10.584,2.3271151788649149
10.588,2.3303672563051805
10.592,2.3261395556328353
10.596,2.3176841542881448
10.6,2.3254891401447821
10.604,2.3414243196020834
10.608,2.3498797209467739
10.612,2.3443511892983224
10.616,2.3365462034416851
10.62,2.3326437105133664
10.624,2.3235378936806228
10.628,2.3150824923359323
10.632,2.3180093620321713
10.636,2.3349201647215523
10.64,2.3472780589945614
10.644,2.3531317983870395
10.648,2.3485788899706677
10.652,2.3437007738102693
10.656,2.3394730731379241
10.66,2.3332941260014195
10.664,2.3290664253290743
10.668,2.3339445414894726
10.672,2.3394730731379241
10.676,2.3384974499058444
10.68,2.3378470344177913
10.684,2.335895787953632
10.688,2.3316680872812867
10.692,2.3261395556328353
10.696,2.3228874781925697
10.7,2.3267899711208884
10.704,2.3284160098410212
10.708,2.3339445414894726
10.712,2.3391478653938975
10.716,2.3410991118580569
10.72,2.3401234886259772
10.724,2.3345949569775257
10.728,2.3293916330731008
10.732,2.3326437105133664
10.736,2.3397982808819506
10.74,2.3463024357624818
10.744,2.3450016047863755
10.748,2.3427251505781896
10.752,2.3443511892983224
10.756,2.3420747350901365
10.76,2.3326437105133664
10.764,2.3316680872812867
10.768,2.3414243196020834
10.772,2.356383875827305
10.776,2.3706930165644735
10.78,2.3797988333972171
10.784,2.3830509108374827
10.788,2.3863029882777482
10.792,2.3876038192538545
10.796,2.3775223791890312
10.8,2.370367808820447
10.804,2.3775223791890312
10.808,2.396709636086598
10.812,2.4126448155438993
10.816,2.4145960620080587
10.82,2.407766699383501
10.824,2.3970348438306246
10.828,2.3817500798613764
10.832,2.3700426010764204
10.836,2.3648392771719955
10.84,2.3606115764996503
10.844,2.3502049286908004
10.848,2.3515057596669067
10.852,2.3619124074757565
10.856,2.3784980024211109
10.86,2.385002157301642
10.864,2.3781727946770843
10.868,2.3726442630286328
10.872,2.3739450940047391
10.876,2.3794736256531905
10.88,2.382075287605403
10.884,2.3863029882777482
10.888,2.3889046502299607
10.892,2.3898802734620403
10.896,2.3866281960217748
10.9,2.3983356748067308
10.904,2.4633772236120421
10.908,2.6103711239120457
10.912,2.8520004777237773
10.916,3.1414353699074127
10.92,3.4006259418965783
10.924,3.4025771883607376
10.928,3.002571663208073
10.932,2.4188237626804039
10.936,1.9950780722138006
10.94,1.8370271086168941
10.944,1.8727999604598153
10.948,1.9947528644697741
10.952,2.1212586768961046
10.956,2.2415855421859305
10.96,2.3404486963700037
10.964,2.3999617135268636
10.968,2.4285799950012006
10.972,2.4380110195779707
10.976,2.4412630970182363
10.98,2.4441899667144753
10.984,2.4542714067792986
10.988,2.4679301320284139
10.992,2.4744342869089451
10.996,2.4773611566051841
11,2.476710741117131
11.004,2.4754099101410247
11.008,2.4789871953253169
11.012,2.4906946741102729
11.016,2.5046786071034148
11.02,2.5147600471682381
11.024,2.525817110465141
11.028,2.5284187724173535
11.032,2.5264675259531941
11.036,2.5264675259531941
11.04,2.5274431491852738
11.044,2.5267927336972207
11.048,2.5297196033934597
11.052,2.5371993815060705
11.056,2.5437035363866016
11.06,2.548581652547
11.064,2.5476060293149203
11.068,2.5479312370589469
11.072,2.5508581067551859
11.076,2.5622403777961154
11.08,2.577199934021337
11.084,2.5876065818301868
11.088,2.59768802189501
11.092,2.5999644761031959
11.096,2.5967123986629304
11.1,2.6054930077516474
11.104,2.6158996555604972
11.108,2.6220786026970018
11.112,2.6266315111133736
11.116,2.6341112892259844
11.12,2.6448431447788607
11.124,2.6526481306354981
11.128,2.6572010390518699
11.132,2.6585018700279761
11.136,2.6672824791166931
11.14,2.672485803021118
11.144,2.6750874649733305
11.148,2.6793151656456757
11.152,2.6949251373589505
11.156,2.7137871865124907
11.16,2.7245190420653671
11.164,2.7306979892018717
11.168,2.7316736124339513
11.172,2.732649235666031
11.176,2.7365517285943497
11.18,2.7443567144509871
11.184,2.7602918939082883
11.188,2.7762270733655896
11.192,2.781105189525988
11.196,2.7804547740379348
11.2,2.7739506191574037
11.204,2.767121256532846
11.208,2.7599666861642618
11.212,2.7485844151233323
11.216,2.7316736124339513
11.22,2.7095594858401455
11.224,2.6802907888777554
11.228,2.6367129511781968
11.232,2.5885822050622664
11.236,2.5466304060828406
11.24,2.5053290225914679
11.244,2.4689057552604936
11.248,2.4347589421377052
11.252,2.4142708542640321
11.256,2.3954088051104918
11.26,2.3719938475405797
11.264,2.3508553441788536
11.268,2.3345949569775257
11.272,2.3235378936806228
11.276,2.3206110239843838
11.28,2.3238631014246494
11.284,2.3238631014246494
11.288,2.3147572845919058
11.292,2.2988221051346045
11.296,2.2955700276943389
11.3,2.3056514677591622
11.304,2.3193101930082776
11.308,2.3258143478888087
11.312,2.3202858162403572
11.316,2.3225622704485431
11.32,2.3316680872812867
11.324,2.3375218266737647
11.328,2.3423999428341631
11.332,2.3482536822266411
11.336,2.3531317983870395
11.34,2.3554082525952253
11.344,2.3541074216191191
11.348,2.3567090835713316
11.352,2.370367808820447
11.356,2.3837013263255358
11.36,2.3859777805337217
11.364,2.3895550657180138
11.368,2.3905306889500935
11.372,2.3947583896224387
11.376,2.4041894141992088
11.38,2.41069356907974
11.384,2.4116691923118196
11.388,2.4142708542640321
11.392,2.4240270865848288
11.396,2.4318320724414662
11.4,2.4428891357383691
11.404,2.4633772236120421
11.408,2.4786619875812903
11.412,2.4845157269737683
11.416,2.488418219902087
11.42,2.4939467515505385
11.424,2.5050038148474414
11.428,2.5196381633286364
11.432,2.5319960576016456
11.436,2.5329716808337253
11.44,2.5352481350419112
11.444,2.5433783286425751
11.448,2.5521589377312921
11.452,2.5664680784684606
11.456,2.5817528424377088
11.46,2.5879317895742133
11.464,2.5850049198779743
11.468,2.5758991030452307
11.472,2.5742730643250979
11.476,2.5833788811578415
11.48,2.5989888528711163
11.484,2.6149240323284175
11.488,2.6224038104410283
11.492,2.6152492400724441
11.496,2.6074442542158067
11.5,2.6110215394000988
11.504,2.6224038104410283
11.508,2.6295583808096126
11.512,2.6295583808096126
11.516,2.6243550569051877
11.52,2.6243550569051877
11.524,2.6168752787925769
11.528,2.6077694619598333
11.532,2.6061434232397005
11.536,2.6084198774478864
11.54,2.6054930077516474
11.544,2.5931351134786382
11.548,2.5814276346936822
11.552,2.5736226488370448
11.556,2.5664680784684606
11.56,2.551508522243239
11.564,2.5375245892500971
11.568,2.5297196033934597
11.572,2.5202885788166896
11.576,2.4998004909430165
11.58,2.482564480509609
11.584,2.4858165579498746
11.588,2.491345089598326
11.592,2.4919955050863791
11.596,2.4858165579498746
11.6,2.4773611566051841
11.604,2.4663040933082812
11.608,2.4549218222673517
11.612,2.4399622660421301
11.616,2.4272791640250944
11.62,2.4266287485370412
11.624,2.4246775020728819
11.628,2.4155716852401383
11.632,2.4019129599910229
11.636,2.3924819354142528
11.64,2.3788232101651374
11.644,2.3641888616839424
11.648,2.3508553441788536
11.652,2.3437007738102693
11.656,2.3329689182573929
11.66,2.3209362317284103
11.664,2.3066270909912419
11.668,2.2978464819025248
11.672,2.2880902495817281
11.676,2.2763827707967721
11.68,2.2672769539640285
11.684,2.2646752920118161
11.688,2.2760575630527455
11.692,2.2864642108615953
11.696,2.2893910805578344
11.7,2.2835373411653563
11.704,2.2783340172609314
11.708,2.2734559011005331
11.712,2.2711794468923472
11.716,2.2770331862848252
11.72,2.2880902495817281
11.724,2.2955700276943389
11.728,2.2952448199503124
11.732,2.2923179502540734
11.736,2.2913423270219937
11.74,2.2994725206226576
11.744,2.3066270909912419
11.748,2.3163833233120386
11.752,2.335895787953632
11.756,2.344676397042349
11.76,2.3391478653938975
11.764,2.3326437105133664
11.768,2.3293916330731008
11.772,2.3254891401447821
11.776,2.3186597775202245
11.78,2.3141068691038527
11.784,2.3128060381277464
11.788,2.3082531297113746
11.792,2.2919927425100468
11.796,2.2731306933565065
11.8,2.2705290314042941
11.804,2.2685777849401347
11.808,2.2601223835954443
11.812,2.2493905280425679
11.816,2.2523173977388069
11.82,2.2711794468923472
11.824,2.2871146263496485
11.828,2.2942691967182327
11.832,2.2939439889742061
11.836,2.2926431579980999
11.84,2.296220443182392
11.844,2.3017489748308435
11.848,2.310204376175534
11.852,2.3245135169127025
11.856,2.3271151788649149
11.86,2.3186597775202245
11.864,2.3108547916635871
11.868,2.3193101930082776
11.872,2.3667905236361548
11.876,2.4744342869089451
11.88,2.6708597643009853
11.884,2.9479367622116115
11.888,3.2386724853713531
11.892,3.381763892743038
11.896,3.1274514369142707
11.9,2.5742730643250979
11.904,2.0705262688279618
11.908,1.8230431756237522
11.912,1.8067827884224243
11.916,1.905320734862471
11.92,2.0259728078963235
11.924,2.1397955183056183
11.928,2.2380082570016384
11.932,2.3095539606874809
11.936,2.3554082525952253
11.94,2.379148417909164
11.944,2.3830509108374827
11.948,2.39085589669412
11.952,2.4019129599910229
11.956,2.4139456465200055
11.96,2.4171977239602711
11.964,2.4191489704244304
11.968,2.4233766710967757
11.972,2.4315068646974396
11.976,2.4399622660421301
11.98,2.4399622660421301
11.984,2.4406126815301832
11.988,2.4383362273219973
11.992,2.4399622660421301
11.996,2.4425639279943425
12,2.4435395512264222
12.004,2.4497184983629268
12.008,2.4490680828748737
12.012,2.4441899667144753
12.016,2.4445151744585019
12.02,2.4445151744585019
12.024,2.4432143434823956
12.028,2.4464664209226612
12.032,2.4542714067792986
12.036,2.4617511848919094
12.04,2.4715074172127061
12.044,2.4754099101410247
12.048,2.4750847023969982
12.052,2.4718326249567326
12.056,2.4718326249567326
12.06,2.4698813784925733
12.064,2.4650032623321749
12.068,2.4705317939806264
12.072,2.4835401037416887
12.076,2.4828896882536355
12.08,2.4741090791649185
12.084,2.4754099101410247
12.088,2.4887434276461136
12.092,2.4965484135027509
12.096,2.4994752831989899
12.1,2.5095567232638132
12.104,2.5202885788166896
12.108,2.5274431491852738
12.112,2.5352481350419112
12.116,2.5404514589463361
12.12,2.5511833144992124
12.124,2.5609395468200091
12.128,2.5667932862124871
12.132,2.5732974410930183
12.136,2.5811024269496556
12.14,2.5928099057346117
12.144,2.603541761287488
12.148,2.6142736168403644
12.152,2.6227290181850549
12.156,2.632160042761825
12.16,2.6393146131304093
12.164,2.6415910673385952
12.168,2.6484204299631529
12.172,2.6594774932600558
12.176,2.6682581023487728
12.18,2.6620791552122682
12.184,2.6467943912430201
12.188,2.6318348350177985
12.192,2.6198021484888159
12.196,2.5980132296390366
12.2,2.5677689094445668
12.204,2.5297196033934597
12.208,2.4845157269737683
12.212,2.4409378892742097
12.216,2.407766699383501
12.22,2.3859777805337217
12.224,2.3674409391242079
12.228,2.3489040977146942
12.232,2.3245135169127025
12.236,2.2971960664144717
12.24,2.2767079785407986
12.244,2.2630492532916833
12.248,2.2526426054828335
12.252,2.2432115809060633
12.256,2.2445124118821695
12.26,2.2419107499299571
12.264,2.2415855421859305
12.268,2.2438619963941164
12.272,2.2474392815784086
12.276,2.250040943530621
12.28,2.250040943530621
12.284,2.2474392815784086
12.288,2.2406099189538509
12.292,2.2289024401688948
12.296,2.2197966233361512
12.3,2.2197966233361512
12.304,2.2249999472405761
12.308,2.2347561795613728
12.312,2.235406595049426
12.316,2.2302032711450011
12.32,2.2308536866330542
12.324,2.2207722465682309
12.328,2.2041866516228765
12.332,2.1980077044863719
12.336,2.1996337432065047
12.34,2.206788313575089
12.344,2.2181705846160185
12.348,2.2178453768719919
12.352,2.2181705846160185
12.356,2.2249999472405761
12.36,2.2311788943770807
12.364,2.2308536866330542
12.368,2.2289024401688948
12.372,2.2259755704726558
12.376,2.2334553485852666
12.38,2.2419107499299571
12.384,2.2487401125545148
12.388,2.2542686442029662
12.392,2.2516669822507538
12.396,2.2425611654180102
12.4,2.241260334441904
12.404,2.2490653202985413
12.408,2.2510165667627007
12.412,2.2555694751790725
12.416,2.2565450984111521
12.42,2.258821552619338
12.424,2.2679273694520816
12.428,2.2806104714691173
12.432,2.2848381721414626
12.436,2.2832121334213298
12.44,2.2799600559810642
12.444,2.2754071475646924
12.448,2.2767079785407986
12.452,2.2880902495817281
12.456,2.304350636783056
12.46,2.3053262600151356
12.464,2.2965456509264186
12.468,2.2968708586704452
12.472,2.3027245980629232
12.476,2.3118304148956668
12.48,2.3238631014246494
12.484,2.3258143478888087
12.488,2.3186597775202245
12.492,2.3154077000799589
12.496,2.3157329078239854
12.5,2.3154077000799589
12.504,2.3193101930082776
12.508,2.3241883091686759
12.512,2.3258143478888087
12.516,2.3271151788649149
12.52,2.3222370627045166
12.524,2.3137816613598261
12.528,2.2988221051346045
12.532,2.2939439889742061
12.536,2.2988221051346045
12.54,2.2991473128786311
12.544,2.2955700276943389
12.548,2.2854885876295157
12.552,2.2858137953735422
12.556,2.2955700276943389
12.56,2.3010985593427904
12.564,2.3056514677591622
12.568,2.3134564536157995
12.572,2.3124808303837199
12.576,2.2997977283666842
12.58,2.2939439889742061
12.584,2.2997977283666842
12.588,2.316058115568012
12.592,2.3274403866089415
12.596,2.3414243196020834
12.6,2.3619124074757565
12.604,2.3723190552846063
12.608,2.3638636539399158
12.612,2.3586603300354909
12.616,2.3677661468682345
12.62,2.3781727946770843
12.624,2.3736198862607125
12.628,2.359310745523544
12.632,2.3589855377795175
12.636,2.3690669778443407
12.64,2.382075287605403
12.644,2.3833761185815092
12.648,2.3824004953494295
12.652,2.3872786115098279
12.656,2.3882542347419076
12.66,2.3866281960217748
12.664,2.3856525727896951
12.668,2.3980104670627043
12.672,2.4220758401206695
12.676,2.4367101886018645
12.68,2.4389866428100504
12.684,2.4344337343936786
12.688,2.4350841498817317
12.692,2.4386614350660238
12.696,2.4412630970182363
12.7,2.4432143434823956
12.704,2.4513445370830595
12.708,2.4523201603151392
12.712,2.4438647589704487
12.716,2.4454907976905815
12.72,2.4516697448270861
12.724,2.4419135125062894
12.728,2.4246775020728819
12.732,2.4168725162162445
12.736,2.4233766710967757
12.74,2.442238720250316
12.744,2.4542714067792986
12.748,2.4542714067792986
12.752,2.4588243151956704
12.756,2.4594747306837235
12.76,2.4588243151956704
12.764,2.4526453680591658
12.768,2.4617511848919094
12.772,2.4812636495335028
12.776,2.4952475825266447
12.78,2.4975240367348306
12.784,2.4923207128304057
12.788,2.4815888572775293
12.792,2.4783367798372637
12.796,2.4965484135027509
12.8,2.5524841454753187
12.804,2.6679328946047463
12.808,2.855902970652096
12.812,3.1128170884330757
12.816,3.3811134772549849
12.82,3.5095705361454748
12.824,3.2432253937877249
12.828,2.6708597643009853
12.832,2.1677633842919022
12.836,1.9567035584186669
12.84,1.9651589597633574
12.844,2.0513390119303949
12.848,2.1671129688038491
12.852,2.2776836017728783
12.856,2.3902054812060669
12.86,2.4838653114857152
12.864,2.551508522243239
12.868,2.5924846979905851
12.872,2.6188265252567362
12.876,2.6341112892259844
12.88,2.6360625356901437
12.884,2.6337860814819578
12.888,2.6412658595945686
12.892,2.6497212609392591
12.896,2.6581766622839496
12.9,2.6689085178368259
12.904,2.6809412043658085
12.908,2.692323475406738
12.912,2.7053317851678003
12.916,2.7046813696797471
12.92,2.7043561619357206
12.924,2.7085838626080658
12.928,2.7063074083998799
12.932,2.7092342780961189
12.936,2.7300475737138186
12.94,2.7437062989629339
12.944,2.7534625312837306
12.948,2.7479339996352792
12.952,2.761267517140368
12.956,2.770048126229085
12.96,2.7768774888536427
12.964,2.7895605908706784
12.968,2.7908614218467847
12.972,2.7876093444065191
12.976,2.7872841366624925
12.98,2.7983411999593955
12.984,2.7963899534952361
12.988,2.7967151612392627
12.992,2.8077722245361656
12.996,2.8194797033211216
13,2.8162276258808561
13.004,2.8220813652733341
13.008,2.8425694531470072
13.012,2.8565533861401491
13.016,2.8607810868124943
13.02,2.8650087874848396
13.024,2.87346418882953
13.028,2.8708625268773176
13.032,2.8776918895018753
13.036,2.899155600607628
13.04,2.9076110019523185
13.044,2.9017572625598405
13.048,2.8949278999352828
13.052,2.8968791463994421
13.056,2.9089118329284247
13.06,2.9235461814096197
13.064,2.9420830228191335
13.068,2.9619206952047534
13.072,2.9817583675903734
13.076,2.9807827443582937
13.08,2.9658231881330721
13.084,2.9580182022764347
13.088,2.9576929945324082
13.092,2.9576929945324082
13.096,2.9580182022764347
13.1,2.9615954874607269
13.104,2.9628963184368331
13.108,2.9567173713003285
13.112,2.9417578150751069
13.116,2.9209445194574073
13.12,2.8959035231673624
13.124,2.8789927204779815
13.128,2.8474475693074055
13.132,2.7967151612392627
13.136,2.7589910629321821
13.14,2.7232182110892609
13.144,2.6737866339972243
13.148,2.6188265252567362
13.152,2.5863057508540805
13.156,2.5716714023728855
13.16,2.5492320680350531
13.164,2.5339473040658049
13.168,2.5245162794890348
13.172,2.5144348394242115
13.176,2.5011013219191227
13.18,2.4916702973423526
13.184,2.4841905192297418
13.188,2.4819140650215559
13.192,2.4708570017246529
13.196,2.462726808123989
13.2,2.4571982764755376
13.204,2.4624016003799625
13.208,2.4624016003799625
13.212,2.4624016003799625
13.216,2.4750847023969982
13.22,2.4874425966700073
13.224,2.4721578327007592
13.228,2.4571982764755376
13.232,2.4565478609874845
13.236,2.4611007694038562
13.24,2.4513445370830595
13.244,2.4438647589704487
13.248,2.4399622660421301
13.252,2.4308564492093865
13.256,2.4373606040899176
13.26,2.4412630970182363
13.264,2.439311850554077
13.268,2.4233766710967757
13.272,2.4119944000558462
13.276,2.41069356907974
13.28,2.4110187768237665
13.284,2.4025633754790761
13.288,2.399636505782837
13.292,2.4002869212708902
13.296,2.4038642064551823
13.3,2.4058154529193416
13.304,2.3980104670627043
13.308,2.3794736256531905
13.312,2.3638636539399158
13.316,2.3710182243085001
13.32,2.3609367842436768
13.324,2.3557334603392519
13.328,2.347603266738588
13.332,2.3420747350901365
13.336,2.338822657649871
13.34,2.3404486963700037
13.344,2.3397982808819506
13.348,2.3225622704485431
13.352,2.313131245871773
13.356,2.3215866472164635
13.36,2.3326437105133664
13.364,2.3381722421618178
13.368,2.3391478653938975
13.372,2.3401234886259772
13.376,2.3459772280184552
13.38,2.344676397042349
13.384,2.3404486963700037
13.388,2.330692464049207
13.392,2.3394730731379241
13.396,2.3554082525952253
13.4,2.3635384461958893
13.404,2.373294678516686
13.408,2.3706930165644735
13.412,2.3628880307078362
13.416,2.3524813828989863
13.42,2.3466276435065083
13.424,2.3365462034416851
13.428,2.3313428795372602
13.432,2.3323185027693398
13.436,2.330692464049207
13.44,2.3368714111857116
13.444,2.3420747350901365
13.448,2.3463024357624818
13.452,2.353457006131066
13.456,2.3378470344177913
13.46,2.3254891401447821
13.464,2.3206110239843838
13.468,2.3202858162403572
13.472,2.3206110239843838
13.476,2.3290664253290743
13.48,2.318984985264251
13.484,2.3170337388000917
13.488,2.3063018832472153
13.492,2.3089035451994278
13.496,2.3121556226396933
13.5,2.3033750135509763
13.504,2.301423767086817
13.508,2.3037002212950028
13.512,2.3033750135509763
13.516,2.2997977283666842
13.52,2.2965456509264186
13.524,2.3040254290390294
13.528,2.3082531297113746
13.532,2.3010985593427904
13.536,2.3017489748308435
13.54,2.3098791684315074
13.544,2.3037002212950028
13.548,2.2926431579980999
13.552,2.2952448199503124
13.556,2.2949196122062858
13.56,2.2893910805578344
13.564,2.2802852637250908
13.568,2.2705290314042941
13.572,2.2487401125545148
13.576,2.2357318027934525
13.58,2.2350813873053994
13.584,2.2477644893224351
13.588,2.2542686442029662
13.592,2.2480896970664617
13.596,2.2321545176091604
13.6,2.2246747394965496
13.604,2.2263007782166824
13.608,2.2276016091927886
13.612,2.2171949613839388
13.616,2.215568922663806
13.62,2.2256503627286293
13.624,2.2344309718173463
13.628,2.2204470388242044
13.632,2.2106908065034077
13.636,2.2227234930323903
13.64,2.2754071475646924
13.644,2.3492293054587208
13.648,2.4721578327007592
13.652,2.6796403733897023
13.656,2.9287495053140447
13.66,3.1534680564363953
13.664,3.1671267816855107
13.668,2.8119999252085108
13.672,2.2276016091927886
13.676,1.7781645069480874
13.68,1.5993002477334812
13.684,1.6142598039587028
13.688,1.732960630528396
13.692,1.8832066082686651
13.696,1.9976797341660131
13.7,2.0900387334695552
13.704,2.1612592294113711
13.708,2.206788313575089
13.712,2.2367074260255322
13.716,2.2539434364589397
13.72,2.2597971758514177
13.724,2.2679273694520816
13.728,2.2679273694520816
13.732,2.2900414960458875
13.736,2.3098791684315074
13.74,2.304350636783056
13.744,2.3089035451994278
13.748,2.3108547916635871
13.752,2.3098791684315074
13.756,2.3215866472164635
13.76,2.3212614394724369
13.764,2.3134564536157995
13.768,2.3202858162403572
13.772,2.318984985264251
13.776,2.324838724656729
13.78,2.3528065906430129
13.784,2.3758963404688984
13.788,2.3638636539399158
13.792,2.3628880307078362
13.796,2.3713434320525266
13.8,2.3866281960217748
13.804,2.396709636086598
13.808,2.3872786115098279
13.812,2.3797988333972171
13.816,2.3950835973664653
13.82,2.4113439845677931
13.824,2.4298808259773068
13.828,2.4487428751308471
13.832,2.4516697448270861
13.836,2.4445151744585019
13.84,2.4497184983629268
13.844,2.4711822094686795
13.848,2.4936215438065119
13.852,2.4864669734379277
13.856,2.4822392727655824
13.86,2.4858165579498746
13.864,2.5079306845436804
13.868,2.519963371072663
13.872,2.519963371072663
13.876,2.5303700188815128
13.88,2.5411018744343892
13.884,2.5381750047381502
13.888,2.5580126771237701
13.892,2.5837040889018681
13.896,2.59768802189501
13.9,2.6178509020246565
13.904,2.6237046414171346
13.908,2.6302087962976657
13.912,2.6445179370348342
13.916,2.66663206362864
13.92,2.6828924508299679
13.924,2.6932990986388177
13.928,2.6887461902224459
13.932,2.6799655811337288
13.936,2.6854941127821803
13.94,2.704030954191694
13.944,2.7085838626080658
13.948,2.6874453592463396
13.952,2.6812664121098351
13.956,2.672485803021118
13.96,2.6559002080757637
13.964,2.6191517330007628
13.968,2.5752486875571776
13.972,2.5401262512023095
13.976,2.5085811000317335
13.98,2.4838653114857152
13.984,2.4750847023969982
13.988,2.4289052027452271
13.992,2.373294678516686
13.996,2.3479284744826145
14,2.3375218266737647
14.004,2.3427251505781896
14.008,2.330692464049207
14.012,2.3251639324007556
14.016,2.3186597775202245
14.02,2.316058115568012
14.024,2.3232126859365962
14.028,2.3167085310560651
14.032,2.3063018832472153
14.036,2.3111799994076136
14.04,2.3394730731379241
14.044,2.3489040977146942
14.048,2.324838724656729
14.052,2.3134564536157995
14.056,2.3368714111857116
14.06,2.3495545132027473
14.064,2.3687417701003142
14.068,2.3684165623562876
14.072,2.3664653158921283
14.076,2.3742703017487656
14.08,2.3801240411412437
14.084,2.399636505782837
14.088,2.4041894141992088
14.092,2.3889046502299607
14.096,2.4006121290149167
14.1,2.4100431535916869
14.104,2.4168725162162445
14.108,2.4220758401206695
14.112,2.4279295795131475
14.116,2.4272791640250944
14.12,2.4331329034175724
14.124,2.4399622660421301
14.128,2.4454907976905815
14.132,2.4490680828748737
14.136,2.4630520158680156
14.14,2.4591495229396969
14.144,2.4490680828748737
14.148,2.4611007694038562
14.152,2.4744342869089451
14.156,2.4793124030693434
14.16,2.4877678044140339
14.164,2.4890686353901401
14.168,2.4851661424618214
14.172,2.485491350205848
14.176,2.4932963360624854
14.18,2.491345089598326
14.184,2.4936215438065119
14.188,2.4952475825266447
14.192,2.4919955050863791
14.196,2.5024021528952289
14.2,2.4984996599669103
14.204,2.5037029838713352
14.208,2.5115079697279725
14.212,2.5167112936323974
14.216,2.5163860858883709
14.22,2.5079306845436804
14.224,2.5024021528952289
14.228,2.511182761983946
14.232,2.5267927336972207
14.236,2.5339473040658049
14.24,2.5300448111374862
14.244,2.5339473040658049
14.248,2.5290691879054066
14.252,2.5215894097927958
14.256,2.5115079697279725
14.26,2.5063046458235476
14.264,2.511182761983946
14.268,2.5157356704003178
14.272,2.5069550613116007
14.276,2.4929711283184588
14.28,2.4897190508781932
14.284,2.4679301320284139
14.288,2.4578486919635907
14.292,2.4666293010523077
14.296,2.4643528468441218
14.3,2.4604503539158031
14.304,2.4633772236120421
14.308,2.4858165579498746
14.312,2.4897190508781932
14.316,2.4672797165403608
14.32,2.442238720250316
14.324,2.4289052027452271
14.328,2.4406126815301832
14.332,2.4650032623321749
14.336,2.4802880263014231
14.34,2.4949223747826181
14.344,2.4991500754549634
14.348,2.4887434276461136
14.352,2.4757351178850513
14.356,2.4741090791649185
14.36,2.4705317939806264
14.364,2.4666293010523077
14.368,2.4939467515505385
14.372,2.4835401037416887
14.376,2.4575234842195641
14.38,2.4493932906189002
14.384,2.4380110195779707
14.388,2.4399622660421301
14.392,2.4376858118339442
14.396,2.4259783330489881
14.4,2.4207750091445632
14.404,2.4308564492093865
14.408,2.4497184983629268
14.412,2.4526453680591658
14.416,2.4302060337213334
14.42,2.4354093576257583
14.424,2.4432143434823956
14.428,2.4285799950012006
14.432,2.4256531253049616
14.436,2.4243522943288554
14.44,2.4308564492093865
14.444,2.4383362273219973
14.448,2.4328076956735458
14.452,2.4308564492093865
14.456,2.4412630970182363
14.46,2.4438647589704487
14.464,2.5063046458235476
14.468,2.6532985461235512
14.472,2.8741146043175831
14.476,3.1427362008835189
14.48,3.3941217870160472
14.484,3.4399760789237916
14.488,3.0874508843990043
14.492,2.4542714067792986
14.496,1.9469473260978702
14.5,1.767432651395211
14.504,1.8158886052551679
14.508,1.9423944176814985
14.512,2.0741035540122539
14.516,2.2093899755273014
14.52,2.3245135169127025
14.524,2.4035389987111557
14.528,2.4276043717691209
14.532,2.4425639279943425
14.536,2.4624016003799625
14.54,2.4750847023969982
14.544,2.4754099101410247
14.548,2.5063046458235476
14.552,2.5222398252808489
14.556,2.5241910717450082
14.56,2.5206137865607161
14.564,2.5202885788166896
14.568,2.5147600471682381
14.572,2.5121583852160256
14.576,2.5011013219191227
14.58,2.4968736212467775
14.584,2.5063046458235476
14.588,2.5219146175368223
14.592,2.5450043673627079
14.596,2.5554110151715577
14.6,2.5466304060828406
14.604,2.5339473040658049
14.608,2.5297196033934597
14.612,2.5453295751067344
14.616,2.5469556138268672
14.62,2.5323212653456721
14.624,2.5407766666903626
14.628,2.5609395468200091
14.632,2.5437035363866016
14.636,2.5381750047381502
14.64,2.548581652547
14.644,2.5693949481646996
14.648,2.5755738953012042
14.652,2.5807772192056291
14.656,2.5866309585981071
14.66,2.5963871909189038
14.664,2.591834282502532
14.668,2.580126803717576
14.672,2.5811024269496556
14.676,2.5993140606151428
14.68,2.6165500710485503
14.684,2.6064686309837271
14.688,2.6110215394000988
14.692,2.6217533949529752
14.696,2.6334608737379313
14.7,2.6438675215467811
14.704,2.6451683525228873
14.708,2.663705193932401
14.712,2.6942747218708973
14.716,2.7108603168162517
14.72,2.6919982676627114
14.724,2.6685833100927994
14.728,2.6789899579016492
14.732,2.7095594858401455
14.736,2.7264702885295264
14.74,2.73557610536227
14.744,2.7261450807854999
14.748,2.7293971582257655
14.752,2.7485844151233323
14.756,2.7498852460994385
14.76,2.7531373235397041
14.764,2.7453323376830667
14.768,2.7141123942565173
14.772,2.6968763838231098
14.776,2.6819168275978882
14.78,2.6585018700279761
14.784,2.6295583808096126
14.788,2.6061434232397005
14.792,2.5856553353660274
14.796,2.5248414872330613
14.8,2.4575234842195641
14.804,2.4220758401206695
14.808,2.3918315199261997
14.812,2.3573594990593847
14.816,2.3235378936806228
14.82,2.3108547916635871
14.824,2.2923179502540734
14.828,2.2672769539640285
14.832,2.2367074260255322
14.836,2.2171949613839388
14.84,2.2194714155921247
14.844,2.2448376196261961
14.848,2.238333464745665
14.852,2.2311788943770807
14.856,2.2259755704726558
14.86,2.2246747394965496
14.864,2.2236991162644699
14.868,2.2207722465682309
14.872,2.2256503627286293
14.876,2.221422662056284
14.88,2.2119916374795139
14.884,2.2022354051587172
14.888,2.2058126903430093
14.892,2.2103655987593811
14.896,2.212642052967567
14.9,2.2165445458958857
14.904,2.2240243240084965
14.908,2.2178453768719919
14.912,2.221422662056284
14.916,2.2246747394965496
14.92,2.232479725353187
14.924,2.2337805563292932
14.928,2.2315041021211073
14.932,2.2321545176091604
14.936,2.2220730775443371
14.94,2.2162193381518591
14.944,2.2197966233361512
14.948,2.2363822182815056
14.952,2.2249999472405761
14.956,2.2106908065034077
14.96,2.2077639368071686
14.964,2.2136176761996467
14.968,2.2110160142474342
14.972,2.2035362361348234
14.976,2.2175201691279653
14.98,2.2373578415135853
14.984,2.2253251549846027
14.988,2.2197966233361512
14.992,2.2256503627286293
14.996,2.2246747394965496
15,2.2305284788890276
15.004,2.2259755704726558
15.008,2.221422662056284
15.012,2.2311788943770807
15.016,2.2445124118821695
15.02,2.2545938519469928
15.024,2.2523173977388069
15.028,2.2302032711450011
15.032,2.2158941304078326
15.036,2.2367074260255322
15.04,2.2591467603633646
15.044,2.2438619963941164
15.048,2.2347561795613728
15.052,2.2542686442029662
15.056,2.2597971758514177
15.06,2.25296781322686
15.064,2.2497157357865945
15.068,2.2428863731620368
15.072,2.2448376196261961
15.076,2.2591467603633646
15.08,2.2776836017728783
15.084,2.2793096404930111
15.088,2.2887406650697812
15.092,2.2822365101892501
15.096,2.2773583940288518
15.1,2.255894682923099
15.104,2.261748422315577
15.108,2.2679273694520816
15.112,2.2659761229879223
15.116,2.2636996687797364
15.12,2.2718298623804003
15.124,2.2832121334213298
15.128,2.2822365101892501
15.132,2.284512964397436
15.136,2.2945944044622593
15.14,2.324838724656729
15.144,2.3362209956976585
15.148,2.3238631014246494
15.152,2.3297168408171274
15.156,2.3680913546122611
15.16,2.3882542347419076
15.164,2.34174952734611
15.168,2.3261395556328353
15.172,2.3319932950253133
15.176,2.3111799994076136
15.18,2.2942691967182327
15.184,2.3066270909912419
15.188,2.3297168408171274
15.192,2.3154077000799589
15.196,2.2910171192779671
15.2,2.2936187812301796
15.204,2.3033750135509763
15.208,2.3076027142233215
15.212,2.3030498058069497
15.216,2.3004481438547373
15.22,2.3082531297113746
15.224,2.3050010522711091
15.228,2.3053262600151356
15.232,2.3199606084963307
15.236,2.3290664253290743
15.24,2.3212614394724369
15.244,2.3215866472164635
15.248,2.3225622704485431
15.252,2.3319932950253133
15.256,2.3235378936806228
15.26,2.3261395556328353
15.264,2.3407739041140303
15.268,2.3843517418135889
15.272,2.4555722377554048
15.276,2.6113467471441254
15.28,2.8542769319319632
15.284,3.1261506059381645
15.288,3.3381860550434794
15.292,3.3033888264326379
15.296,2.8533013086998835
15.3,2.2344309718173463
15.304,1.7947501018934418
15.308,1.6617401345865801
15.312,1.735887500224635
15.316,1.8861334779649042
15.32,2.0269484311284032
15.324,2.1534542435547337
15.328,2.2695534081722144
15.332,2.3238631014246494
15.336,2.347603266738588
15.34,2.382075287605403
15.344,2.4162221007281914
15.348,2.4230514633527491
15.352,2.4207750091445632
15.356,2.4233766710967757
15.36,2.4149212697520852
15.364,2.4204498014005367
15.368,2.4461412131786346
15.372,2.4529705758031923
15.376,2.4646780545881484
15.38,2.4663040933082812
15.384,2.4607755616598297
15.388,2.4828896882536355
15.392,2.4877678044140339
15.396,2.4728082481888123
15.4,2.4594747306837235
15.404,2.4757351178850513
15.408,2.5040281916153617
15.412,2.4998004909430165
15.416,2.4988248677109368
15.42,2.517036501376424
15.424,2.5202885788166896
15.428,2.5206137865607161
15.432,2.5319960576016456
15.436,2.5355733427859377
15.44,2.5385002124821767
15.444,2.551508522243239
15.448,2.5697201559087262
15.452,2.5726470256049652
15.456,2.563216001028195
15.46,2.5648420397483278
15.464,2.5706957791408058
15.468,2.5700453636527527
15.472,2.5798015959735494
15.476,2.577199934021337
15.48,2.591834282502532
15.484,2.6032165535434615
15.488,2.6211029794649221
15.492,2.6445179370348342
15.496,2.6451683525228873
15.5,2.6562254158197902
15.504,2.6711849720450118
15.508,2.6672824791166931
15.512,2.6698841410689056
15.516,2.6737866339972243
15.52,2.6880957747343928
15.524,2.7202913413930219
15.528,2.7368769363383763
15.532,2.7602918939082883
15.536,2.7775279043416958
15.54,2.764194386836607
15.544,2.7648448023246601
15.548,2.784032059222227
15.552,2.8038697316078469
15.556,2.7830564359901473
15.56,2.7742758269014303
15.564,2.7947639147751033
15.568,2.8191544955770951
15.572,2.8376913369866088
15.576,2.8253334427135997
15.58,2.7794791508058552
15.584,2.7398038060346153
15.588,2.7082586548640393
15.592,2.6682581023487728
15.596,2.6370381589222234
15.6,2.5989888528711163
15.604,2.5521589377312921
15.608,2.5066298535675742
15.612,2.4770359488611575
15.616,2.4506941215950064
15.62,2.4308564492093865
15.624,2.4103683613357134
15.628,2.3726442630286328
15.632,2.3573594990593847
15.636,2.3450016047863755
15.64,2.3310176717932336
15.644,2.3196354007523041
15.648,2.3202858162403572
15.652,2.3163833233120386
15.656,2.3154077000799589
15.66,2.3183345697761979
15.664,2.3183345697761979
15.668,2.3241883091686759
15.672,2.3170337388000917
15.676,2.3056514677591622
15.68,2.2988221051346045
15.684,2.3056514677591622
15.688,2.3111799994076136
15.692,2.3108547916635871
15.696,2.3199606084963307
15.7,2.3349201647215523
15.704,2.3293916330731008
15.708,2.3202858162403572
15.712,2.32191185496049
15.716,2.3310176717932336
15.72,2.347603266738588
15.724,2.3641888616839424
15.728,2.356383875827305
15.732,2.3469528512505349
15.736,2.3560586680832785
15.74,2.3664653158921283
15.744,2.3645140694279689
15.748,2.3466276435065083
15.752,2.3339445414894726
15.756,2.3430503583222162
15.76,2.3680913546122611
15.764,2.3719938475405797
15.768,2.3635384461958893
15.772,2.3661401081481017
15.776,2.3736198862607125
15.78,2.3687417701003142
15.784,2.3671157313801814
15.788,2.3742703017487656
15.792,2.3710182243085001
15.796,2.3752459249808453
15.8,2.379148417909164
15.804,2.3931323509023059
15.808,2.4002869212708902
15.812,2.396709636086598
15.816,2.3775223791890312
15.82,2.3706930165644735
15.824,2.3788232101651374
15.828,2.376221548212925
15.832,2.3749207172368187
15.836,2.3716686397965532
15.84,2.3758963404688984
15.844,2.3863029882777482
15.848,2.3892298579739872
15.852,2.382075287605403
15.856,2.3742703017487656
15.86,2.3765467559569515
15.864,2.3895550657180138
15.868,2.3853273650456686
15.872,2.3895550657180138
15.876,2.399636505782837
15.88,2.39085589669412
15.884,2.3876038192538545
15.888,2.3989860902947839
15.892,2.4002869212708902
15.896,2.3898802734620403
15.9,2.399636505782837
15.904,2.41069356907974
15.908,2.4132952310319524
15.912,2.4009373367589433
15.916,2.3885794424859341
15.92,2.3947583896224387
15.924,2.4116691923118196
15.928,2.4207750091445632
15.932,2.4178481394483242
15.936,2.4168725162162445
15.94,2.41069356907974
15.944,2.399636505782837
15.948,2.3970348438306246
15.952,2.4067910761514213
15.956,2.3954088051104918
15.96,2.3719938475405797
15.964,2.3690669778443407
15.968,2.3954088051104918
15.972,2.4119944000558462
15.976,2.413620438775979
15.98,2.4152464774961118
15.984,2.4350841498817317
15.988,2.4383362273219973
15.992,2.4321572801854927
15.996,2.4259783330489881
16,2.4331329034175724
16.004,2.4347589421377052
16.008,2.4145960620080587
16.012,2.3999617135268636
16.016,2.4084171148715541
16.02,2.425327917560935
16.024,2.4344337343936786
16.028,2.4263035407930147
16.032,2.4019129599910229
16.036,2.3863029882777482
16.04,2.3911811044381466
16.044,2.404839829687262
16.048,2.3950835973664653
16.052,2.3778475869330578
16.056,2.3749207172368187
16.06,2.3866281960217748
16.064,2.3915063121821731
16.068,2.3921567276702262
16.072,2.3924819354142528
16.076,2.3921567276702262
16.08,2.3947583896224387
16.084,2.41069356907974
16.088,2.3976852593186777
16.092,2.3771971714450046
16.096,2.3723190552846063
16.1,2.3677661468682345
16.104,2.3863029882777482
16.108,2.4149212697520852
16.112,2.4624016003799625
16.116,2.5749234798131511
16.12,2.786958928918466
16.124,3.0731417436618358
16.128,3.3550968577328604
16.132,3.5033915890089702
16.136,3.2477783022040967
16.14,2.6438675215467811
16.144,2.086461448285263
16.148,1.8425556402653456
16.152,1.8331246156885754
16.156,1.919955083343666
16.16,2.0389811176573858
16.164,2.1651617223396897
16.168,2.2871146263496485
16.172,2.3745955094927922
16.176,2.4129700232879259
16.18,2.4246775020728819
16.184,2.4373606040899176
16.188,2.4454907976905815
16.192,2.4659788855642546
16.196,2.4851661424618214
16.2,2.4874425966700073
16.204,2.4939467515505385
16.208,2.5046786071034148
16.212,2.5004509064310696
16.216,2.4962232057587244
16.22,2.5059794380795211
16.224,2.5222398252808489
16.228,2.5046786071034148
16.232,2.4919955050863791
16.236,2.4955727902706712
16.24,2.5033777761273086
16.244,2.5011013219191227
16.248,2.5017517374071758
16.252,2.5167112936323974
16.256,2.531670849857619
16.26,2.542727913154522
16.264,2.5411018744343892
16.268,2.5459799905947875
16.272,2.5550858074275311
16.276,2.5518337299872655
16.28,2.548581652547
16.284,2.5459799905947875
16.288,2.5518337299872655
16.292,2.5641916242602747
16.296,2.5762243107892573
16.3,2.5837040889018681
16.304,2.583053673413815
16.308,2.588907412806293
16.312,2.5980132296390366
16.316,2.6064686309837271
16.32,2.6048425922635943
16.324,2.600614891591249
16.328,2.5931351134786382
16.332,2.5911838670144789
16.336,2.5921594902465586
16.34,2.6084198774478864
16.344,2.6237046414171346
16.348,2.6347617047140375
16.352,2.6480952222191263
16.356,2.6624043629562948
16.36,2.6650060249085072
16.364,2.66663206362864
16.368,2.6760630882054102
16.372,2.6932990986388177
16.376,2.6978520070551895
16.38,2.6991528380312957
16.384,2.7154132252326235
16.388,2.7368769363383763
16.392,2.7489096228673588
16.396,2.7560641932359431
16.4,2.764194386836607
16.404,2.7609423093963414
16.408,2.7485844151233323
16.412,2.7391533905465622
16.416,2.7313484046899248
16.42,2.7228930033452343
16.424,2.7115107323043048
16.428,2.6968763838231098
16.432,2.6630547784443479
16.436,2.6289079653215595
16.44,2.5742730643250979
16.444,2.5254919027211145
16.448,2.4871173889259808
16.452,2.4454907976905815
16.456,2.4025633754790761
16.46,2.3560586680832785
16.464,2.327765594352968
16.468,2.3089035451994278
16.472,2.2988221051346045
16.476,2.2942691967182327
16.48,2.281586094701197
16.484,2.2721550701244269
16.488,2.2731306933565065
16.492,2.2702038236602675
16.496,2.2607727990834974
16.5,2.2493905280425679
16.504,2.241260334441904
16.508,2.2357318027934525
16.512,2.2269511937047355
16.516,2.2175201691279653
16.52,2.2162193381518591
16.524,2.2197966233361512
16.528,2.2331301408412401
16.532,2.2428863731620368
16.536,2.2419107499299571
16.54,2.2402847112098243
16.544,2.2373578415135853
16.548,2.2445124118821695
16.552,2.2487401125545148
16.556,2.2445124118821695
16.56,2.238333464745665
16.564,2.2331301408412401
16.568,2.2406099189538509
16.572,2.2539434364589397
16.576,2.2591467603633646
16.58,2.2679273694520816
16.584,2.2754071475646924
16.588,2.2780088095169049
16.592,2.2663013307319488
16.596,2.2516669822507538
16.6,2.2451628273702227
16.604,2.2643500842677895
16.608,2.2864642108615953
16.612,2.2936187812301796
16.616,2.2900414960458875
16.62,2.2965456509264186
16.624,2.2994725206226576
16.628,2.2864642108615953
16.632,2.2737811088445596
16.636,2.2633744610357098
16.64,2.2571955138992053
16.644,2.2702038236602675
16.648,2.2851633798854891
16.652,2.2890658728138078
16.656,2.2861390031175688
16.66,2.2835373411653563
16.664,2.2783340172609314
16.668,2.2754071475646924
16.672,2.2832121334213298
16.676,2.2812608869571704
16.68,2.2711794468923472
16.684,2.2646752920118161
16.688,2.2679273694520816
16.692,2.2802852637250908
16.696,2.2910171192779671
16.7,2.2880902495817281
16.704,2.287439834093675
16.708,2.2825617179332767
16.712,2.2689029926841613
16.716,2.261748422315577
16.72,2.2666265384759754
16.724,2.2806104714691173
16.728,2.2900414960458875
16.732,2.2893910805578344
16.736,2.2942691967182327
16.74,2.2991473128786311
16.744,2.3010985593427904
16.748,2.2984968973905779
16.752,2.2913423270219937
16.756,2.2867894186056219
16.76,2.2806104714691173
16.764,2.2770331862848252
16.768,2.2861390031175688
16.772,2.2991473128786311
16.776,2.2997977283666842
16.78,2.3020741825748701
16.784,2.3069522987352684
16.788,2.3020741825748701
16.792,2.2968708586704452
16.796,2.2942691967182327
16.8,2.2981716896465514
16.804,2.3017489748308435
16.808,2.3017489748308435
16.812,2.3037002212950028
16.816,2.3111799994076136
16.82,2.3238631014246494
16.824,2.3232126859365962
16.828,2.3170337388000917
16.832,2.3150824923359323
16.836,2.324838724656729
16.84,2.3414243196020834
16.844,2.350530136434827
16.848,2.3541074216191191
16.852,2.356383875827305
16.856,2.3541074216191191
16.86,2.3456520202744287
16.864,2.3466276435065083
16.868,2.3511805519228801
16.872,2.3550830448511988
16.876,2.3570342913153581
16.88,2.3576847068034112
16.884,2.3544326293631457
16.888,2.3420747350901365
16.892,2.344676397042349
16.896,2.3654896926600486
16.9,2.3902054812060669
16.904,2.3973600515746512
16.908,2.3954088051104918
16.912,2.3944331818784121
16.916,2.3954088051104918
16.92,2.3963844283425715
16.924,2.3986608825507574
16.928,2.4028885832231026
16.932,2.4110187768237665
16.936,2.4214254246326163
16.94,2.4214254246326163
16.944,2.4110187768237665
16.948,2.4002869212708902
16.952,2.3885794424859341
16.956,2.3810996643733233
16.96,2.3889046502299607
16.964,2.3950835973664653
16.968,2.3976852593186777
16.972,2.4032137909671292
16.976,2.4152464774961118
16.98,2.4220758401206695
16.984,2.4246775020728819
16.988,2.4233766710967757
16.992,2.422401047864696
16.996,2.413620438775979
17,2.4064658684073947
17.004,2.4100431535916869
17.008,2.4100431535916869
17.012,2.4103683613357134
17.016,2.41069356907974
17.02,2.4093927381036337
17.024,2.4110187768237665
17.028,2.4237018788408022
17.032,2.4822392727655824
17.036,2.6074442542158067
17.04,2.8315123898501042
17.044,3.1206220742897131
17.048,3.4224148607463576
17.052,3.5437173492682632
17.056,3.2191600207297597
17.06,2.5892326205503196
17.064,2.086461448285263
17.068,1.8867838934529573
17.072,1.8991417877259664
17.076,2.0067855509987567
17.08,2.1271124162885826
17.084,2.2467888660903554
17.088,2.3524813828989863
17.092,2.4207750091445632
17.096,2.45979993842775
17.1,2.4832148959976621
17.104,2.4897190508781932
17.108,2.4910198818542995
17.112,2.494271959294565
17.116,2.5056542303354945
17.12,2.5128088007040787
17.124,2.5183373323525302
17.128,2.5251666949770879
17.132,2.5349229272978846
17.136,2.5440287441306282
17.14,2.5446791596186813
17.144,2.5430531208985485
17.148,2.5547605996835046
17.152,2.577199934021337
17.156,2.5794763882295229
17.16,2.5697201559087262
17.164,2.5658176629804075
17.168,2.5742730643250979
17.172,2.5814276346936822
17.176,2.5817528424377088
17.18,2.5843545043899212
17.184,2.5879317895742133
17.188,2.5963871909189038
17.192,2.611671954888152
17.196,2.6230542259290814
17.2,2.6243550569051877
17.204,2.6211029794649221
17.208,2.6064686309837271
17.212,2.59768802189501
17.216,2.603541761287488
17.22,2.611671954888152
17.224,2.6106963316560723
17.228,2.6074442542158067
17.232,2.6113467471441254
17.236,2.6113467471441254
17.24,2.6119971626321785
17.244,2.6152492400724441
17.248,2.6198021484888159
17.252,2.629233173065586
17.256,2.6451683525228873
17.26,2.6542741693556309
17.264,2.6526481306354981
17.268,2.6532985461235512
17.272,2.6640304016764276
17.276,2.6786647501576226
17.28,2.695250345102977
17.284,2.712161147792358
17.288,2.720941756881075
17.292,2.7160636407206766
17.296,2.7170392639527563
17.3,2.7245190420653671
17.304,2.7323240279220045
17.308,2.73557610536227
17.312,2.7450071299390402
17.316,2.7586658551881555
17.32,2.767121256532846
17.324,2.7723245804372709
17.328,2.7706985417171381
17.332,2.7703733339731116
17.336,2.7658204255567398
17.34,2.7515112848195713
17.344,2.7365517285943497
17.348,2.7206165491370484
17.352,2.6985024225432426
17.356,2.663705193932401
17.36,2.6230542259290814
17.364,2.583053673413815
17.368,2.5446791596186813
17.372,2.5059794380795211
17.376,2.4666293010523077
17.38,2.428254787257174
17.384,2.396709636086598
17.388,2.3768719637009781
17.392,2.3547578371071722
17.396,2.3316680872812867
17.4,2.3150824923359323
17.404,2.3040254290390294
17.408,2.2929683657421265
17.412,2.2783340172609314
17.416,2.2715046546363737
17.42,2.2689029926841613
17.424,2.2656509152438957
17.428,2.2643500842677895
17.432,2.2695534081722144
17.436,2.2780088095169049
17.44,2.2864642108615953
17.444,2.2897162883018609
17.448,2.2838625489093829
17.452,2.2770331862848252
17.456,2.2760575630527455
17.46,2.2802852637250908
17.464,2.2822365101892501
17.468,2.284512964397436
17.472,2.2871146263496485
17.476,2.278659225004958
17.48,2.2721550701244269
17.484,2.2744315243326128
17.488,2.2828869256773032
17.492,2.2851633798854891
17.496,2.2884154573257547
17.5,2.2890658728138078
17.504,2.2900414960458875
17.508,2.2916675347660203
17.512,2.2858137953735422
17.516,2.2776836017728783
17.52,2.2780088095169049
17.524,2.2806104714691173
17.528,2.2812608869571704
17.532,2.2848381721414626
17.536,2.2861390031175688
17.54,2.2828869256773032
17.544,2.269878615916241
17.548,2.2666265384759754
17.552,2.2760575630527455
17.556,2.2854885876295157
17.56,2.2835373411653563
17.564,2.2812608869571704
17.568,2.2760575630527455
17.572,2.2663013307319488
17.576,2.2539434364589397
17.58,2.2428863731620368
17.584,2.2360570105374791
17.588,2.2328049330972135
17.592,2.2341057640733197
17.596,2.2519921899947803
17.6,2.2659761229879223
17.604,2.2750819398206659
17.608,2.2770331862848252
17.612,2.2806104714691173
17.616,2.2968708586704452
17.62,2.3092287529434543
17.624,2.3056514677591622
17.628,2.2958952354383655
17.632,2.2945944044622593
17.636,2.2971960664144717
17.64,2.2981716896465514
17.644,2.3007733515987638
17.648,2.3089035451994278
17.652,2.3186597775202245
17.656,2.3232126859365962
17.66,2.3199606084963307
17.664,2.3108547916635871
17.668,2.3085783374554012
17.672,2.3124808303837199
17.676,2.3202858162403572
17.68,2.3261395556328353
17.684,2.3362209956976585
17.688,2.3511805519228801
17.692,2.3619124074757565
17.696,2.3645140694279689
17.7,2.3674409391242079
17.704,2.370367808820447
17.708,2.3693921855883673
17.712,2.3749207172368187
17.716,2.3863029882777482
17.72,2.3905306889500935
17.724,2.3882542347419076
17.728,2.3827257030934561
17.732,2.3866281960217748
17.736,2.3898802734620403
17.74,2.3918315199261997
17.744,2.3869534037658013
17.748,2.3889046502299607
17.752,2.3993112980388105
17.756,2.4132952310319524
17.76,2.4168725162162445
17.764,2.4126448155438993
17.768,2.4097179458476603
17.772,2.4097179458476603
17.776,2.4002869212708902
17.78,2.3970348438306246
17.784,2.3947583896224387
17.788,2.3976852593186777
17.792,2.4028885832231026
17.796,2.4080919071275275
17.8,2.4181733471923508
17.804,2.422401047864696
17.808,2.4139456465200055
17.812,2.4061406606633682
17.816,2.4103683613357134
17.82,2.416547308472218
17.824,2.4181733471923508
17.828,2.4162221007281914
17.832,2.416547308472218
17.836,2.422401047864696
17.84,2.4259783330489881
17.844,2.428254787257174
17.848,2.4266287485370412
17.852,2.4302060337213334
17.856,2.4331329034175724
17.86,2.4347589421377052
17.864,2.4370353963458911
17.868,2.4396370582981035
17.872,2.4337833189056255
17.876,2.4230514633527491
17.88,2.4220758401206695
17.884,2.4383362273219973
17.888,2.453946199035272
17.892,2.45979993842775
17.896,2.4630520158680156
17.9,2.4734586636768654
17.904,2.4841905192297418
17.908,2.4809384417894762
17.912,2.4731334559328388
17.916,2.4695561707485467
17.92,2.4802880263014231
17.924,2.4851661424618214
17.928,2.4799628185573965
17.932,2.4715074172127061
17.936,2.4650032623321749
17.94,2.4614259771478828
17.944,2.4493932906189002
17.948,2.4438647589704487
17.952,2.4464664209226612
17.956,2.4500437061069533
17.96,2.4454907976905815
17.964,2.4373606040899176
17.968,2.4389866428100504
17.972,2.4503689138509799
17.976,2.4575234842195641
17.98,2.4617511848919094
17.984,2.4591495229396969
17.988,2.4545966145233251
17.992,2.4487428751308471
17.996,2.4477672518987674
18,2.4454907976905815
18.004,2.4428891357383691
18.008,2.4324824879295193
18.012,2.4305312414653599
18.016,2.4402874737861566
18.02,2.4848409347177949
18.024,2.59768802189501
18.028,2.8178536646009888
18.032,3.1111910497129429
18.036,3.4022519806167111
18.04,3.548270257684635
18.044,3.2939578018558677
18.048,2.7280963272496592
18.052,2.2084143522952218
18.056,1.9534514809784014
18.06,1.9219063298078254
18.064,2.014590536855394
18.068,2.1362182331213262
18.072,2.2555694751790725
18.076,2.3586603300354909
18.08,2.4211002168885898
18.084,2.4614259771478828
18.088,2.4900442586222198
18.092,2.5050038148474414
18.096,2.5115079697279725
18.1,2.514109631680185
18.104,2.5163860858883709
18.108,2.517036501376424
18.112,2.5118331774719991
18.116,2.511182761983946
18.12,2.5121583852160256
18.124,2.5147600471682381
18.128,2.5131340084481053
18.132,2.5121583852160256
18.136,2.5183373323525302
18.14,2.5264675259531941
18.144,2.5310204343695659
18.148,2.5358985505299643
18.152,2.5401262512023095
18.156,2.5420774976664688
18.16,2.5385002124821767
18.164,2.5381750047381502
18.168,2.5385002124821767
18.172,2.5375245892500971
18.176,2.5362237582739908
18.18,2.5407766666903626
18.184,2.5550858074275311
18.188,2.5719966101169121
18.192,2.583053673413815
18.196,2.5911838670144789
18.2,2.5898830360383727
18.204,2.591834282502532
18.208,2.5892326205503196
18.212,2.5928099057346117
18.216,2.6002896838472225
18.22,2.6058182154956739
18.224,2.6064686309837271
18.228,2.6080946697038598
18.232,2.6119971626321785
18.236,2.6172004865366034
18.24,2.6272819266014267
18.244,2.6412658595945686
18.248,2.6545993770996574
18.252,2.6750874649733305
18.256,2.6871201515023131
18.26,2.6910226444306318
18.264,2.6988276302872691
18.268,2.7043561619357206
18.272,2.7059822006558534
18.276,2.701104084495455
18.28,2.7072830316319596
18.284,2.7290719504817389
18.288,2.7463079609151464
18.292,2.7463079609151464
18.296,2.7453323376830667
18.3,2.7515112848195713
18.304,2.7713489572051913
18.308,2.7876093444065191
18.312,2.8006176541675813
18.316,2.7954143302631564
18.32,2.7856580979423597
18.324,2.7820808127580676
18.328,2.7947639147751033
18.332,2.8006176541675813
18.336,2.7882597598945722
18.34,2.7625683481164742
18.344,2.7306979892018717
18.348,2.6910226444306318
18.352,2.6493960531952325
18.356,2.6152492400724441
18.36,2.5814276346936822
18.364,2.5482564448029734
18.368,2.5167112936323974
18.372,2.4789871953253169
18.376,2.4396370582981035
18.38,2.4188237626804039
18.384,2.4158968929841649
18.388,2.4100431535916869
18.392,2.3944331818784121
18.396,2.3758963404688984
18.4,2.3560586680832785
18.404,2.3433755660662428
18.408,2.3371966189297382
18.412,2.3437007738102693
18.416,2.3498797209467739
18.42,2.3502049286908004
18.424,2.3472780589945614
18.428,2.3472780589945614
18.432,2.3427251505781896
18.436,2.3414243196020834
18.44,2.3485788899706677
18.444,2.3619124074757565
18.448,2.3771971714450046
18.452,2.3895550657180138
18.456,2.3947583896224387
18.46,2.3941079741343856
18.464,2.3898802734620403
18.468,2.3882542347419076
18.472,2.3810996643733233
18.476,2.3824004953494295
18.48,2.3892298579739872
18.484,2.3980104670627043
18.488,2.4002869212708902
18.492,2.3876038192538545
18.496,2.3749207172368187
18.5,2.3667905236361548
18.504,2.3537822138750926
18.508,2.3420747350901365
18.512,2.3456520202744287
18.516,2.3557334603392519
18.52,2.3693921855883673
18.524,2.3736198862607125
18.528,2.3690669778443407
18.532,2.3628880307078362
18.536,2.3544326293631457
18.54,2.3443511892983224
18.544,2.3404486963700037
18.548,2.344676397042349
18.552,2.3498797209467739
18.556,2.347603266738588
18.56,2.3404486963700037
18.564,2.3332941260014195
18.568,2.3267899711208884
18.572,2.3228874781925697
18.576,2.3310176717932336
18.58,2.3420747350901365
18.584,2.3469528512505349
18.588,2.347603266738588
18.592,2.3420747350901365
18.596,2.3368714111857116
18.6,2.3375218266737647
18.604,2.3423999428341631
18.608,2.3397982808819506
18.612,2.3371966189297382
18.616,2.3342697492334992
18.62,2.3319932950253133
18.624,2.3326437105133664
18.628,2.3378470344177913
18.632,2.3423999428341631
18.636,2.3463024357624818
18.64,2.3440259815542959
18.644,2.3326437105133664
18.648,2.3316680872812867
18.652,2.3456520202744287
18.656,2.3557334603392519
18.66,2.3550830448511988
18.664,2.3463024357624818
18.668,2.3472780589945614
18.672,2.3537822138750926
18.676,2.3632132384518627
18.68,2.3671157313801814
18.684,2.3684165623562876
18.688,2.3661401081481017
18.692,2.3612619919877034
18.696,2.3619124074757565
18.7,2.3619124074757565
18.704,2.3567090835713316
18.708,2.3521561751549598
18.712,2.3586603300354909
18.716,2.3671157313801814
18.72,2.373294678516686
18.724,2.3739450940047391
18.728,2.3742703017487656
18.732,2.3716686397965532
18.736,2.3628880307078362
18.74,2.3541074216191191
18.744,2.362237615219783
18.748,2.3778475869330578
18.752,2.3931323509023059
18.756,2.4025633754790761
18.76,2.3999617135268636
18.764,2.3973600515746512
18.768,2.3970348438306246
18.772,2.3924819354142528
18.776,2.3843517418135889
18.78,2.3843517418135889
18.784,2.3931323509023059
18.788,2.4038642064551823
18.792,2.4100431535916869
18.796,2.41069356907974
18.8,2.4110187768237665
18.804,2.4071162838954479
18.808,2.4100431535916869
18.812,2.4162221007281914
18.816,2.4266287485370412
18.82,2.4279295795131475
18.824,2.4302060337213334
18.828,2.4367101886018645
18.832,2.4396370582981035
18.836,2.4354093576257583
18.84,2.4331329034175724
18.844,2.4363849808578379
18.848,2.4435395512264222
18.852,2.4461412131786346
18.856,2.4383362273219973
18.86,2.4347589421377052
18.864,2.4409378892742097
18.868,2.4503689138509799
18.872,2.4578486919635907
18.876,2.4624016003799625
18.88,2.4689057552604936
18.884,2.4731334559328388
18.888,2.4708570017246529
18.892,2.462726808123989
18.896,2.4555722377554048
18.9,2.4630520158680156
18.904,2.47963761081337
18.908,2.491345089598326
18.912,2.4958979980146978
18.916,2.4910198818542995
18.92,2.4861417656939011
18.924,2.4731334559328388
18.928,2.4581738997076172
18.932,2.4493932906189002
18.936,2.4552470300113782
18.94,2.4591495229396969
18.944,2.4604503539158031
18.948,2.4607755616598297
18.952,2.4676049242843874
18.956,2.4741090791649185
18.96,2.4676049242843874
18.964,2.4611007694038562
18.968,2.4750847023969982
18.972,2.5037029838713352
18.976,2.5222398252808489
18.98,2.52874398016138
18.984,2.5245162794890348
18.988,2.5137844239361584
18.992,2.5014265296631493
18.996,2.5108575542399194
19,2.5300448111374862
19.004,2.5876065818301868
19.008,2.7030553309596144
19.012,2.9144403645768762
19.016,3.1911921547434758
19.02,3.4672935294220224
19.024,3.5788397856231313
19.028,3.2864780237432569
19.032,2.7183400949288625
19.036,2.2263007782166824
19.04,2.0142653291113675
19.044,2.0149157445994206
19.048,2.1118276523193344
19.052,2.2337805563292932
19.056,2.3557334603392519
19.06,2.4646780545881484
19.064,2.5365489660180174
19.068,2.5876065818301868
19.072,2.6217533949529752
19.076,2.638013782154303
19.08,2.6438675215467811
19.084,2.6396398208744358
19.088,2.6373633666662499
19.092,2.6367129511781968
