544.0
554.0
558.0
539.0
521.0
531.0
545.0
540.0
525.0
528.0
539.0
536.0
523.0
524.0
536.0
524.0
494.0
494.0
542.0
611.0
672.0
739.0
816.0
888.0
938.0
916.0
818.0
655.0
458.0
351.0
355.0
397.0
427.0
445.0
474.0
503.0
504.0
491.0
497.0
514.0
513.0
499.0
500.0
516.0
518.0
504.0
502.0
520.0
527.0
516.0
512.0
530.0
543.0
535.0
530.0
546.0
560.0
554.0
544.0
552.0
563.0
553.0
539.0
545.0
560.0
555.0
544.0
550.0
563.0
557.0
539.0
535.0
551.0
556.0
546.0
548.0
570.0
582.0
573.0
568.0
585.0
597.0
585.0
574.0
584.0
592.0
575.0
556.0
557.0
565.0
556.0
542.0
547.0
562.0
557.0
538.0
539.0
554.0
559.0
547.0
542.0
556.0
559.0
546.0
543.0
557.0
560.0
541.0
528.0
538.0
548.0
535.0
521.0
529.0
539.0
529.0
555.0
571.0
577.0
563.0
557.0
570.0
572.0
553.0
540.0
552.0
559.0
541.0
525.0
538.0
554.0
548.0
540.0
558.0
582.0
584.0
574.0
580.0
594.0
585.0
561.0
554.0
563.0
556.0
532.0
525.0
539.0
540.0
521.0
510.0
525.0
533.0
518.0
507.0
524.0
538.0
525.0
508.0
517.0
530.0
518.0
498.0
502.0
518.0
509.0
488.0
490.0
508.0
506.0
489.0
489.0
508.0
508.0
488.0
485.0
502.0
505.0
483.0
474.0
491.0
502.0
490.0
479.0
495.0
512.0
500.0
487.0
504.0
526.0
518.0
498.0
502.0
514.0
503.0
480.0
483.0
501.0
497.0
477.0
476.0
495.0
496.0
476.0
472.0
489.0
489.0
462.0
464.0
530.0
618.0
678.0
730.0
796.0
873.0
887.0
790.0
651.0
494.0
355.0
299.0
329.0
387.0
419.0
431.0
458.0
494.0
501.0
484.0
481.0
503.0
509.0
490.0
484.0
505.0
515.0
499.0
487.0
504.0
519.0
504.0
489.0
506.0
525.0
516.0
503.0
518.0
540.0
534.0
513.0
518.0
538.0
533.0
509.0
504.0
522.0
520.0
497.0
489.0
505.0
506.0
483.0
473.0
491.0
500.0
485.0
476.0
500.0
522.0
510.0
497.0
514.0
532.0
516.0
490.0
490.0
501.0
485.0
457.0
454.0
470.0
464.0
442.0
442.0
464.0
468.0
447.0
440.0
463.0
474.0
458.0
451.0
472.0
484.0
466.0
448.0
461.0
471.0
453.0
433.0
444.0
458.0
446.0
428.0
442.0
463.0
455.0
434.0
438.0
460.0
456.0
431.0
426.0
443.0
443.0
420.0
411.0
430.0
438.0
421.0
411.0
432.0
450.0
436.0
424.0
440.0
451.0
427.0
402.0
412.0
433.0
424.0
402.0
408.0
428.0
420.0
396.0
398.0
419.0
414.0
383.0
380.0
424.0
488.0
548.0
613.0
692.0
754.0
789.0
766.0
678.0
540.0
363.0
251.0
254.0
309.0
344.0
362.0
394.0
425.0
421.0
401.0
408.0
432.0
429.0
406.0
407.0
432.0
434.0
411.0
404.0
424.0
429.0
408.0
397.0
418.0
431.0
416.0
408.0
432.0
454.0
444.0
432.0
448.0
466.0
454.0
434.0
444.0
462.0
454.0
435.0
439.0
461.0
455.0
429.0
425.0
448.0
454.0
434.0
429.0
456.0
470.0
455.0
447.0
470.0
485.0
467.0
448.0
459.0
468.0
447.0
422.0
429.0
446.0
437.0
419.0
427.0
446.0
442.0
424.0
430.0
456.0
458.0
440.0
439.0
461.0
464.0
443.0
434.0
454.0
461.0
441.0
429.0
448.0
462.0
447.0
431.0
442.0
455.0
443.0
425.0
433.0
449.0
439.0
420.0
425.0
444.0
440.0
422.0
425.0
449.0
454.0
437.0
436.0
460.0
470.0
457.0
454.0
482.0
500.0
484.0
466.0
481.0
496.0
484.0
472.0
490.0
512.0
503.0
485.0
494.0
514.0
506.0
484.0
483.0
494.0
494.0
506.0
571.0
671.0
742.0
773.0
815.0
881.0
855.0
717.0
556.0
423.0
364.0
354.0
381.0
437.0
485.0
494.0
492.0
511.0
535.0
529.0
514.0
530.0
557.0
560.0
547.0
556.0
582.0
584.0
565.0
566.0
590.0
598.0
582.0
582.0
607.0
620.0
607.0
600.0
624.0
639.0
627.0
614.0
630.0
644.0
632.0
612.0
623.0
639.0
627.0
602.0
604.0
622.0
619.0
598.0
600.0
624.0
630.0
617.0
622.0
649.0
662.0
650.0
643.0
662.0
669.0
647.0
631.0
636.0
639.0
617.0
596.0
607.0
623.0
611.0
592.0
600.0
615.0
606.0
584.0
586.0
601.0
596.0
579.0
582.0
603.0
604.0
581.0
574.0
590.0
593.0
572.0
562.0
579.0
589.0
572.0
557.0
571.0
585.0
570.0
552.0
564.0
578.0
566.0
550.0
560.0
581.0
574.0
555.0
562.0
586.0
588.0
572.0
572.0
594.0
599.0
582.0
576.0
593.0
593.0
567.0
552.0
568.0
576.0
560.0
546.0
562.0
576.0
562.0
546.0
557.0
572.0
556.0
528.0
533.0
581.0
639.0
707.0
792.0
879.0
928.0
957.0
936.0
836.0
662.0
459.0
359.0
382.0
439.0
477.0
507.0
552.0
583.0
580.0
571.0
589.0
608.0
597.0
579.0
588.0
607.0
599.0
580.0
588.0
610.0
609.0
592.0
594.0
618.0
624.0
609.0
608.0
630.0
638.0
624.0
619.0
639.0
649.0
634.0
622.0
637.0
647.0
632.0
612.0
622.0
638.0
625.0
602.0
606.0
621.0
613.0
596.0
604.0
630.0
635.0
624.0
631.0
653.0
657.0
637.0
626.0
638.0
633.0
604.0
585.0
595.0
600.0
581.0
564.0
576.0
587.0
574.0
558.0
568.0
581.0
569.0
551.0
558.0
578.0
573.0
553.0
558.0
582.0
585.0
568.0
566.0
581.0
580.0
557.0
549.0
566.0
572.0
554.0
542.0
558.0
568.0
552.0
538.0
549.0
559.0
542.0
524.0
533.0
550.0
544.0
526.0
534.0
558.0
559.0
545.0
550.0
576.0
577.0
556.0
546.0
557.0
555.0
533.0
525.0
547.0
559.0
548.0
540.0
559.0
575.0
564.0
551.0
559.0
565.0
558.0
575.0
653.0
760.0
836.0
884.0
934.0
994.0
964.0
816.0
632.0
460.0
364.0
347.0
392.0
467.0
514.0
521.0
526.0
551.0
564.0
549.0
538.0
555.0
571.0
563.0
556.0
574.0
596.0
588.0
574.0
584.0
604.0
600.0
584.0
589.0
610.0
610.0
597.0
602.0
627.0
633.0
618.0
614.0
634.0
639.0
619.0
607.0
622.0
633.0
619.0
605.0
616.0
627.0
612.0
595.0
604.0
621.0
620.0
613.0
631.0
658.0
662.0
650.0
656.0
676.0
673.0
650.0
642.0
656.0
652.0
629.0
617.0
632.0
638.0
621.0
614.0
634.0
646.0
637.0
626.0
639.0
655.0
646.0
633.0
642.0
659.0
651.0
633.0
637.0
650.0
642.0
624.0
625.0
641.0
640.0
623.0
617.0
632.0
634.0
615.0
607.0
623.0
628.0
609.0
593.0
606.0
616.0
599.0
583.0
598.0
615.0
604.0
586.0
593.0
612.0
609.0
593.0
598.0
616.0
607.0
578.0
568.0
584.0
584.0
566.0
558.0
578.0
586.0
571.0
564.0
579.0
589.0
571.0
551.0
561.0
591.0
630.0
691.0
777.0
862.0
906.0
947.0
981.0
930.0
775.0
566.0
406.0
373.0
390.0
416.0
452.0
499.0
521.0
512.0
508.0
527.0
536.0
522.0
512.0
529.0
538.0
525.0
516.0
533.0
549.0
540.0
526.0
538.0
555.0
550.0
535.0
544.0
564.0
564.0
548.0
551.0
571.0
572.0
551.0
546.0
562.0
563.0
540.0
528.0
540.0
545.0
522.0
501.0
508.0
515.0
495.0
478.0
493.0
515.0
512.0
503.0
520.0
547.0
550.0
536.0
540.0
556.0
547.0
518.0
507.0
518.0
513.0
491.0
484.0
503.0
511.0
494.0
485.0
504.0
513.0
496.0
485.0
503.0
518.0
504.0
490.0
503.0
519.0
507.0
488.0
497.0
518.0
515.0
497.0
501.0
524.0
523.0
502.0
499.0
517.0
517.0
494.0
489.0
508.0
514.0
491.0
476.0
489.0
500.0
484.0
468.0
482.0
498.0
486.0
470.0
484.0
508.0
508.0
499.0
513.0
539.0
538.0
515.0
507.0
520.0
518.0
500.0
497.0
514.0
517.0
498.0
491.0
510.0
519.0
502.0
488.0
498.0
503.0
500.0
530.0
622.0
724.0
788.0
832.0
900.0
969.0
928.0
792.0
626.0
476.0
389.0
373.0
408.0
465.0
495.0
494.0
500.0
524.0
532.0
512.0
504.0
525.0
538.0
522.0
509.0
525.0
538.0
526.0
512.0
525.0
541.0
532.0
518.0
530.0
552.0
549.0
536.0
547.0
573.0
578.0
566.0
569.0
589.0
591.0
570.0
558.0
573.0
578.0
557.0
542.0
554.0
561.0
544.0
531.0
546.0
564.0
560.0
555.0
576.0
600.0
593.0
576.0
584.0
601.0
592.0
568.0
562.0
574.0
566.0
540.0
531.0
546.0
549.0
530.0
523.0
540.0
546.0
531.0
529.0
558.0
577.0
560.0
540.0
550.0
561.0
547.0
528.0
534.0
549.0
541.0
524.0
528.0
546.0
540.0
519.0
518.0
538.0
540.0
523.0
523.0
548.0
556.0
539.0
531.0
548.0
554.0
533.0
516.0
528.0
539.0
522.0
505.0
519.0
539.0
531.0
517.0
527.0
546.0
542.0
530.0
542.0
566.0
560.0
532.0
520.0
531.0
528.0
506.0
501.0
522.0
527.0
505.0
497.0
518.0
530.0
514.0
498.0
512.0
530.0
541.0
582.0
673.0
764.0
819.0
855.0
916.0
951.0
867.0
701.0
538.0
427.0
383.0
383.0
413.0
465.0
498.0
500.0
506.0
530.0
538.0
519.0
511.0
529.0
539.0
523.0
510.0
525.0
542.0
532.0
520.0
538.0
564.0
560.0
543.0
550.0
569.0
564.0
544.0
545.0
566.0
567.0
547.0
541.0
560.0
563.0
542.0
533.0
553.0
566.0
549.0
534.0
543.0
547.0
526.0
504.0
512.0
528.0
519.0
506.0
522.0
549.0
553.0
543.0
550.0
568.0
561.0
533.0
523.0
535.0
527.0
498.0
489.0
507.0
513.0
493.0
480.0
500.0
519.0
511.0
501.0
516.0
528.0
510.0
492.0
500.0
514.0
502.0
481.0
488.0
505.0
498.0
480.0
483.0
501.0
498.0
476.0
474.0
494.0
496.0
477.0
471.0
490.0
497.0
477.0
466.0
484.0
496.0
480.0
464.0
477.0
491.0
477.0
461.0
471.0
488.0
477.0
456.0
460.0
476.0
471.0
453.0
454.0
477.0
483.0
469.0
474.0
504.0
522.0
510.0
506.0
530.0
538.0
522.0
511.0
531.0
550.0
540.0
529.0
545.0
563.0
554.0
538.0
548.0
568.0
557.0
531.0
539.0
587.0
648.0
710.0
778.0
854.0
902.0
928.0
917.0
842.0
700.0
529.0
408.0
401.0
440.0
461.0
477.0
514.0
544.0
540.0
532.0
547.0
564.0
554.0
539.0
547.0
565.0
558.0
540.0
543.0
563.0
560.0
539.0
536.0
556.0
560.0
545.0
543.0
566.0
576.0
562.0
555.0
573.0
585.0
570.0
556.0
567.0
580.0
566.0
549.0
556.0
567.0
553.0
531.0
531.0
543.0
535.0
516.0
517.0
537.0
541.0
528.0
532.0
555.0
561.0
545.0
535.0
548.0
551.0
529.0
510.0
517.0
521.0
503.0
487.0
497.0
511.0
499.0
483.0
490.0
507.0
503.0
490.0
496.0
511.0
505.0
486.0
484.0
497.0
495.0
475.0
469.0
483.0
486.0
468.0
461.0
477.0
488.0
473.0
463.0
476.0
488.0
477.0
466.0
477.0
491.0
480.0
462.0
468.0
488.0
482.0
462.0
466.0
486.0
486.0
467.0
465.0
484.0
486.0
466.0
459.0
474.0
480.0
463.0
456.0
473.0
484.0
471.0
464.0
484.0
502.0
493.0
483.0
499.0
518.0
507.0
483.0
484.0
499.0
492.0
473.0
476.0
497.0
499.0
480.0
477.0
496.0
497.0
476.0
467.0
479.0
481.0
480.0
520.0
624.0
727.0
792.0
837.0
895.0
940.0
875.0
715.0
533.0
379.0
297.0
295.0
347.0
407.0
438.0
442.0
455.0
480.0
484.0
470.0
467.0
484.0
489.0
474.0
468.0
484.0
493.0
481.0
470.0
484.0
498.0
488.0
478.0
493.0
511.0
506.0
496.0
509.0
530.0
529.0
518.0
523.0
541.0
538.0
519.0
518.0
535.0
536.0
518.0
510.0
522.0
523.0
501.0
486.0
497.0
506.0
495.0
488.0
511.0
534.0
532.0
524.0
540.0
557.0
546.0
525.0
523.0
529.0
516.0
492.0
487.0
501.0
497.0
478.0
475.0
493.0
494.0
476.0
469.0
488.0
496.0
481.0
472.0
489.0
501.0
489.0
477.0
490.0
504.0
494.0
476.0
484.0
501.0
495.0
480.0
488.0
507.0
505.0
489.0
491.0
512.0
514.0
493.0
489.0
508.0
515.0
500.0
494.0
510.0
518.0
502.0
493.0
512.0
524.0
513.0
499.0
508.0
520.0
505.0
487.0
496.0
512.0
507.0
491.0
494.0
511.0
507.0
490.0
495.0
516.0
516.0
494.0
481.0
491.0
491.0
472.0
465.0
482.0
490.0
475.0
466.0
482.0
498.0
488.0
475.0
483.0
491.0
479.0
484.0
548.0
658.0
755.0
824.0
885.0
947.0
972.0
890.0
723.0
533.0
359.0
274.0
293.0
366.0
423.0
442.0
454.0
482.0
499.0
490.0
481.0
498.0
514.0
505.0
491.0
500.0
516.0
508.0
494.0
502.0
525.0
526.0
513.0
517.0
538.0
540.0
525.0
527.0
549.0
556.0
540.0
534.0
551.0
560.0
545.0
534.0
548.0
555.0
537.0
519.0
525.0
532.0
515.0
496.0
501.0
516.0
512.0
500.0
511.0
538.0
544.0
534.0
540.0
562.0
563.0
540.0
527.0
534.0
529.0
503.0
487.0
498.0
501.0
481.0
465.0
476.0
485.0
469.0
453.0
466.0
481.0
471.0
455.0
463.0
480.0
474.0
456.0
459.0
476.0
474.0
455.0
452.0
470.0
471.0
451.0
442.0
460.0
467.0
451.0
442.0
457.0
467.0
455.0
444.0
458.0
473.0
464.0
450.0
462.0
478.0
469.0
451.0
455.0
468.0
460.0
442.0
443.0
463.0
464.0
450.0
452.0
472.0
480.0
469.0
469.0
494.0
508.0
496.0
485.0
496.0
500.0
482.0
466.0
477.0
489.0
477.0
460.0
467.0
482.0
474.0
457.0
462.0
479.0
472.0
449.0
455.0
509.0
584.0
656.0
736.0
821.0
877.0
904.0
878.0
778.0
608.0
400.0
281.0
286.0
338.0
371.0
390.0
426.0
456.0
453.0
439.0
446.0
466.0
465.0
454.0
462.0
481.0
481.0
465.0
466.0
486.0
491.0
475.0
472.0
492.0
499.0
483.0
478.0
500.0
516.0
506.0
496.0
512.0
526.0
514.0
499.0
511.0
527.0
518.0
498.0
500.0
514.0
505.0
484.0
482.0
497.0
493.0
473.0
471.0
494.0
503.0
493.0
496.0
518.0
526.0
511.0
500.0
514.0
520.0
498.0
475.0
480.0
490.0
475.0
458.0
466.0
483.0
477.0
461.0
466.0
483.0
477.0
458.0
458.0
479.0
478.0
455.0
442.0
452.0
448.0
424.0
408.0
413.0
400.0
361.0
322.0
307.0
292.0
257.0
226.0
227.0
229.0
207.0
182.0
179.0
182.0
161.0
132.0
127.0
136.0
129.0
112.0
111.0
128.0
129.0
111.0
102.0
119.0
126.0
110.0
100.0
115.0
124.0
110.0
104.0
123.0
141.0
138.0
134.0
155.0
178.0
171.0
155.0
165.0
187.0
188.0
178.0
187.0
212.0
216.0
203.0
206.0
230.0
239.0
224.0
215.0
232.0
250.0
271.0
339.0
447.0
542.0
593.0
631.0
689.0
692.0
579.0
402.0
248.0
160.0
140.0
160.0
211.0
266.0
293.0
297.0
315.0
343.0
350.0
338.0
345.0
370.0
380.0
365.0
362.0
383.0
393.0
383.0
378.0
400.0
420.0
414.0
410.0
431.0
453.0
451.0
448.0
469.0
493.0
492.0
481.0
491.0
516.0
516.0
498.0
496.0
514.0
513.0
494.0
490.0
509.0
510.0
490.0
482.0
502.0
516.0
505.0
502.0
528.0
550.0
542.0
533.0
549.0
564.0
551.0
534.0
539.0
550.0
537.0
513.0
514.0
531.0
530.0
516.0
520.0
544.0
547.0
530.0
528.0
551.0
558.0
542.0
532.0
548.0
559.0
544.0
532.0
548.0
564.0
552.0
538.0
546.0
562.0
556.0
540.0
550.0
568.0
563.0
546.0
549.0
570.0
572.0
554.0
553.0
571.0
572.0
554.0
550.0
568.0
575.0
559.0
548.0
564.0
577.0
565.0
554.0
568.0
585.0
577.0
566.0
579.0
599.0
595.0
584.0
596.0
618.0
613.0
590.0
589.0
609.0
611.0
594.0
593.0
613.0
619.0
600.0
592.0
611.0
623.0
610.0
597.0
609.0
624.0
636.0
678.0
776.0
872.0
928.0
961.0
1003.0
1005.0
967.0
820.0
656.0
544.0
497.0
502.0
544.0
600.0
627.0
626.0
632.0
652.0
662.0
650.0
645.0
665.0
677.0
661.0
649.0
664.0
677.0
664.0
646.0
660.0
681.0
678.0
664.0
676.0
699.0
698.0
684.0
688.0
710.0
709.0
691.0
689.0
708.0
711.0
694.0
686.0
703.0
706.0
684.0
667.0
677.0
684.0
666.0
648.0
657.0
668.0
657.0
648.0
666.0
687.0
679.0
662.0
670.0
689.0
683.0
658.0
652.0
664.0
657.0
634.0
627.0
641.0
642.0
624.0
612.0
628.0
639.0
628.0
620.0
637.0
647.0
635.0
621.0
634.0
646.0
636.0
622.0
631.0
644.0
637.0
618.0
623.0
639.0
634.0
616.0
617.0
636.0
637.0
618.0
611.0
629.0
633.0
614.0
604.0
620.0
630.0
612.0
598.0
611.0
620.0
602.0
584.0
596.0
612.0
600.0
582.0
583.0
601.0
600.0
588.0
594.0
618.0
622.0
609.0
609.0
624.0
622.0
600.0
591.0
606.0
611.0
593.0
583.0
602.0
614.0
602.0
591.0
605.0
616.0
596.0
571.0
588.0
643.0
711.0
775.0
848.0
917.0
961.0
982.0
945.0
844.0
683.0
518.0
435.0
456.0
496.0
514.0
534.0
571.0
592.0
582.0
574.0
593.0
608.0
599.0
588.0
603.0
620.0
613.0
601.0
614.0
636.0
636.0
624.0
635.0
655.0
656.0
642.0
646.0
670.0
676.0
661.0
658.0
679.0
688.0
670.0
660.0
676.0
682.0
661.0
646.0
658.0
668.0
650.0
632.0
640.0
656.0
642.0
624.0
631.0
650.0
647.0
633.0
639.0
657.0
652.0
629.0
625.0
640.0
639.0
609.0
593.0
605.0
606.0
579.0
560.0
573.0
584.0
566.0
551.0
567.0
584.0
573.0
556.0
569.0
591.0
586.0
567.0
573.0
592.0
586.0
565.0
565.0
583.0
582.0
558.0
552.0
571.0
574.0
553.0
542.0
563.0
572.0
552.0
539.0
558.0
568.0
548.0
526.0
539.0
556.0
545.0
527.0
532.0
551.0
542.0
520.0
530.0
556.0
557.0
539.0
542.0
567.0
572.0
556.0
560.0
590.0
600.0
575.0
559.0
575.0
584.0
568.0
553.0
572.0
589.0
575.0
558.0
569.0
586.0
576.0
554.0
554.0
568.0
572.0
595.0
672.0
776.0
845.0
876.0
916.0
964.0
908.0
758.0
590.0
471.0
427.0
428.0
461.0
517.0
553.0
554.0
551.0
573.0
593.0
584.0
572.0
587.0
606.0
596.0
576.0
584.0
610.0
610.0
588.0
584.0
602.0
603.0
583.0
581.0
604.0
613.0
596.0
591.0
613.0
628.0
617.0
607.0
624.0
637.0
622.0
606.0
618.0
638.0
629.0
608.0
610.0
620.0
608.0
590.0
591.0
607.0
603.0
585.0
588.0
612.0
614.0
596.0
593.0
612.0
610.0
580.0
561.0
565.0
563.0
540.0
526.0
541.0
553.0
536.0
520.0
533.0
551.0
542.0
523.0
532.0
552.0
550.0
534.0
539.0
559.0
558.0
539.0
538.0
558.0
562.0
548.0
544.0
563.0
567.0
549.0
538.0
556.0
569.0
557.0
547.0
563.0
576.0
564.0
546.0
556.0
576.0
570.0
551.0
555.0
573.0
571.0
556.0
560.0
580.0
584.0
570.0
572.0
594.0
600.0
582.0
570.0
584.0
593.0
579.0
569.0
587.0
599.0
584.0
569.0
580.0
597.0
587.0
569.0
575.0
585.0
566.0
545.0
576.0
656.0
738.0
798.0
863.0
928.0
976.0
945.0
830.0
681.0
511.0
394.0
381.0
434.0
489.0
504.0
514.0
548.0
571.0
561.0
548.0
562.0
582.0
576.0
561.0
570.0
588.0
581.0
560.0
565.0
587.0
586.0
565.0
561.0
582.0
587.0
569.0
564.0
584.0
596.0
576.0
564.0
580.0
591.0
579.0
568.0
582.0
592.0
575.0
553.0
558.0
570.0
556.0
534.0
543.0
564.0
559.0
541.0
546.0
573.0
580.0
568.0
569.0
591.0
598.0
574.0
557.0
565.0
565.0
537.0
514.0
525.0
534.0
517.0
499.0
512.0
526.0
516.0
499.0
510.0
532.0
532.0
519.0
525.0
546.0
546.0
530.0
530.0
551.0
550.0
525.0
516.0
534.0
540.0
518.0
506.0
527.0
541.0
527.0
512.0
526.0
534.0
519.0
503.0
515.0
533.0
522.0
501.0
508.0
528.0
522.0
504.0
510.0
533.0
534.0
517.0
521.0
540.0
544.0
524.0
514.0
528.0
536.0
519.0
509.0
525.0
534.0
520.0
508.0
525.0
543.0
533.0
516.0
521.0
526.0
517.0
529.0
597.0
688.0
750.0
783.0
834.0
906.0
906.0
792.0
639.0
497.0
408.0
382.0
403.0
458.0
495.0
497.0
498.0
522.0
538.0
525.0
513.0
526.0
540.0
525.0
507.0
519.0
540.0
535.0
518.0
525.0
546.0
544.0
528.0
532.0
555.0
559.0
544.0
544.0
567.0
573.0
556.0
550.0
571.0
579.0
558.0
542.0
555.0
566.0
550.0
532.0
541.0
548.0
531.0
508.0
512.0
528.0
520.0
503.0
513.0
538.0
542.0
525.0
526.0
540.0
534.0
509.0
500.0
517.0
519.0
494.0
478.0
489.0
497.0
481.0
467.0
481.0
494.0
482.0
467.0
478.0
495.0
484.0
469.0
478.0
497.0
490.0
473.0
478.0
504.0
504.0
485.0
486.0
506.0
506.0
484.0
478.0
500.0
510.0
493.0
482.0
497.0
510.0
500.0
488.0
503.0
517.0
507.0
494.0
508.0
526.0
522.0
510.0
524.0
550.0
551.0
536.0
538.0
552.0
546.0
524.0
520.0
540.0
545.0
524.0
516.0
535.0
547.0
534.0
527.0
547.0
559.0
538.0
514.0
532.0
580.0
632.0
686.0
758.0
827.0
877.0
915.0
909.0
833.0
688.0
523.0
434.0
440.0
466.0
474.0
494.0
531.0
546.0
532.0
524.0
545.0
558.0
547.0
537.0
550.0
566.0
553.0
540.0
552.0
566.0
554.0
536.0
548.0
572.0
568.0
549.0
556.0
578.0
580.0
564.0
565.0
586.0
587.0
565.0
556.0
574.0
578.0
558.0
545.0
558.0
565.0
546.0
526.0
534.0
544.0
524.0
504.0
517.0
539.0
535.0
524.0
538.0
559.0
552.0
531.0
535.0
558.0
556.0
532.0
523.0
537.0
537.0
514.0
504.0
524.0
533.0
515.0
505.0
523.0
540.0
530.0
520.0
537.0
553.0
540.0
521.0
531.0
549.0
541.0
522.0
528.0
548.0
544.0
522.0
521.0
540.0
544.0
525.0
518.0
534.0
534.0
512.0
499.0
513.0
515.0
494.0
480.0
497.0
510.0
494.0
478.0
494.0
514.0
504.0
490.0
507.0
531.0
525.0
504.0
505.0
520.0
510.0
490.0
493.0
515.0
518.0
495.0
487.0
508.0
519.0
501.0
492.0
505.0
504.0
475.0
467.0
519.0
598.0
649.0
689.0
748.0
815.0
850.0
807.0
711.0
599.0
460.0
367.0
364.0
411.0
444.0
448.0
457.0
483.0
488.0
470.0
465.0
485.0
487.0
469.0
459.0
480.0
494.0
482.0
470.0
488.0
503.0
485.0
467.0
482.0
504.0
497.0
478.0
489.0
514.0
513.0
494.0
496.0
519.0
518.0
496.0
492.0
512.0
517.0
498.0
486.0
500.0
502.0
474.0
454.0
465.0
476.0
462.0
450.0
469.0
491.0
483.0
468.0
480.0
500.0
492.0
468.0
472.0
511.0
576.0
652.0
755.0
870.0
950.0
997.0
1007.0
1009.0
1010.0
1011.0
1011.0
1012.0
1012.0
1012.0
1012.0
1012.0
1012.0
1012.0
1012.0
1012.0
1012.0
1013.0
1012.0
1013.0
1013.0
1012.0
1013.0
1012.0
1013.0
1012.0
1012.0
1013.0
1013.0
1013.0
1013.0
1013.0
1013.0
1013.0
1013.0
1013.0
1013.0
1013.0
1013.0
1012.0
1012.0
1012.0
1012.0
1012.0
1012.0
1013.0
1012.0
1012.0
1012.0
1012.0
1012.0
1012.0
1012.0
1012.0
1013.0
1012.0
1013.0
1012.0
1012.0
1012.0
1012.0
1012.0
1012.0
1012.0
1012.0
1012.0
1012.0
1013.0
1013.0
1012.0
1012.0
1012.0
1012.0
1012.0
1013.0
1012.0
1012.0
1012.0
1012.0
1012.0
1012.0
1012.0
1012.0
1012.0
1011.0
1012.0
1011.0
1011.0
1011.0
1011.0
1011.0
1011.0
1010.0
1010.0
1010.0
1010.0
1010.0
1009.0
1010.0
1010.0
1009.0
1008.0
1008.0
1008.0
1008.0
1007.0
1006.0
1007.0
1005.0
997.0
986.0
984.0
968.0
936.0
919.0
924.0
912.0
881.0
858.0
862.0
860.0
833.0
815.0
830.0
843.0
826.0
807.0
817.0
824.0
800.0
769.0
763.0
765.0
740.0
704.0
694.0
700.0
683.0
653.0
644.0
654.0
646.0
622.0
609.0
621.0
619.0
592.0
576.0
589.0
593.0
571.0
552.0
561.0
570.0
550.0
527.0
533.0
541.0
521.0
497.0
498.0
509.0
496.0
471.0
468.0
480.0
473.0
449.0
440.0
452.0
450.0
427.0
418.0
433.0
436.0
414.0
402.0
418.0
429.0
414.0
404.0
420.0
432.0
413.0
387.0
389.0
397.0
384.0
366.0
371.0
384.0
377.0
356.0
353.0
366.0
361.0
340.0
335.0
348.0
342.0
326.0
351.0
433.0
521.0
578.0
623.0
678.0
734.0
695.0
558.0
390.0
226.0
125.0
109.0
162.0
229.0
256.0
264.0
286.0
312.0
309.0
291.0
291.0
310.0
311.0
294.0
291.0
312.0
320.0
304.0
298.0
316.0
324.0
307.0
298.0
317.0
332.0
320.0
307.0
320.0
337.0
328.0
310.0
320.0
336.0
328.0
310.0
312.0
331.0
328.0
310.0
309.0
324.0
323.0
303.0
299.0
320.0
328.0
315.0
315.0
341.0
361.0
354.0
345.0
358.0
368.0
348.0
326.0
329.0
334.0
314.0
291.0
297.0
313.0
308.0
294.0
302.0
320.0
320.0
304.0
306.0
331.0
336.0
317.0
310.0
327.0
334.0
318.0
308.0
324.0
335.0
321.0
307.0
320.0
332.0
320.0
306.0
315.0
328.0
318.0
301.0
309.0
328.0
324.0
309.0
313.0
330.0
327.0
307.0
304.0
321.0
322.0
301.0
294.0
314.0
323.0
310.0
302.0
320.0
334.0
320.0
303.0
312.0
324.0
312.0
295.0
306.0
324.0
316.0
301.0
308.0
330.0
330.0
316.0
321.0
340.0
337.0
327.0
356.0
442.0
540.0
607.0
661.0
724.0
789.0
792.0
693.0
546.0
364.0
211.0
163.0
210.0
277.0
311.0
324.0
352.0
382.0
383.0
371.0
380.0
399.0
402.0
388.0
392.0
414.0
421.0
408.0
407.0
429.0
441.0
429.0
426.0
447.0
456.0
442.0
434.0
450.0
462.0
454.0
445.0
458.0
474.0
466.0
453.0
464.0
484.0
477.0
453.0
453.0
468.0
464.0
446.0
444.0
463.0
468.0
455.0
457.0
486.0
504.0
497.0
494.0
516.0
528.0
512.0
494.0
502.0
508.0
488.0
466.0
472.0
484.0
473.0
458.0
465.0
483.0
479.0
461.0
462.0
482.0
482.0
465.0
462.0
479.0
481.0
463.0
456.0
474.0
484.0
469.0
458.0
474.0
484.0
471.0
458.0
470.0
483.0
472.0
456.0
465.0
478.0
466.0
449.0
456.0
473.0
471.0
456.0
459.0
478.0
481.0
467.0
465.0
483.0
489.0
476.0
474.0
498.0
511.0
498.0
488.0
499.0
507.0
493.0
482.0
494.0
506.0
496.0
482.0
492.0
511.0
507.0
493.0
498.0
512.0
504.0
487.0
510.0
586.0
667.0
726.0
782.0
848.0
913.0
944.0
894.0
773.0
599.0
417.0
344.0
375.0
425.0
451.0
465.0
490.0
515.0
512.0
499.0
508.0
528.0
525.0
510.0
515.0
535.0
540.0
527.0
526.0
543.0
548.0
535.0
532.0
551.0
561.0
550.0
547.0
566.0
579.0
569.0
558.0
571.0
585.0
577.0
565.0
573.0
582.0
570.0
550.0
549.0
560.0
553.0
534.0
531.0
545.0
546.0
532.0
534.0
557.0
569.0
564.0
565.0
584.0
593.0
579.0
568.0
576.0
580.0
560.0
543.0
550.0
559.0
547.0
531.0
538.0
552.0
546.0
532.0
536.0
551.0
547.0
532.0
534.0
551.0
552.0
536.0
532.0
547.0
549.0
532.0
524.0
537.0
544.0
530.0
520.0
533.0
543.0
530.0
517.0
525.0
537.0
527.0
513.0
520.0
533.0
524.0
505.0
507.0
523.0
522.0
508.0
509.0
528.0
535.0
525.0
525.0
546.0
556.0
546.0
540.0
552.0
555.0
539.0
528.0
537.0
546.0
536.0
527.0
539.0
552.0
544.0
530.0
536.0
550.0
542.0
520.0
528.0
577.0
642.0
706.0
774.0
847.0
901.0
951.0
959.0
895.0
750.0
557.0
420.0
405.0
441.0
466.0
485.0
516.0
539.0
536.0
528.0
539.0
553.0
545.0
530.0
533.0
549.0
547.0
535.0
537.0
551.0
551.0
539.0
538.0
554.0
560.0
547.0
545.0
562.0
572.0
562.0
556.0
570.0
581.0
570.0
560.0
569.0
579.0
568.0
552.0
556.0
564.0
552.0
532.0
534.0
547.0
540.0
524.0
526.0
546.0
554.0
547.0
550.0
570.0
578.0
567.0
559.0
568.0
570.0
550.0
534.0
536.0
539.0
524.0
509.0
515.0
527.0
519.0
507.0
515.0
526.0
521.0
507.0
509.0
522.0
520.0
505.0
503.0
517.0
517.0
499.0
492.0
505.0
507.0
492.0
485.0
502.0
512.0
495.0
481.0
495.0
510.0
501.0
486.0
496.0
512.0
502.0
486.0
492.0
509.0
504.0
486.0
487.0
502.0
500.0
484.0
484.0
503.0
512.0
499.0
494.0
513.0
524.0
513.0
508.0
526.0
540.0
527.0
510.0
520.0
529.0
520.0
506.0
516.0
533.0
528.0
513.0
519.0
537.0
534.0
516.0
514.0
524.0
526.0
538.0
603.0
708.0
791.0
840.0
885.0
954.0
979.0
890.0
729.0
566.0
441.0
389.0
399.0
447.0
494.0
508.0
508.0
525.0
545.0
542.0
529.0
536.0
553.0
552.0
539.0
541.0
559.0
563.0
550.0
547.0
564.0
570.0
560.0
556.0
572.0
581.0
573.0
566.0
581.0
594.0
587.0
579.0
591.0
605.0
598.0
583.0
589.0
602.0
595.0
577.0
576.0
588.0
584.0
567.0
567.0
582.0
586.0
577.0
580.0
603.0
616.0
610.0
610.0
626.0
635.0
624.0
614.0
625.0
634.0
621.0
607.0
612.0
621.0
611.0
597.0
604.0
622.0
621.0
607.0
611.0
630.0
630.0
616.0
615.0
630.0
633.0
615.0
605.0
615.0
623.0
615.0
609.0
622.0
632.0
620.0
607.0
616.0
627.0
617.0
605.0
613.0
626.0
620.0
605.0
607.0
621.0
617.0
600.0
601.0
616.0
614.0
602.0
598.0
612.0
615.0
602.0
598.0
615.0
624.0
612.0
604.0
620.0
633.0
625.0
616.0
630.0
644.0
639.0
631.0
633.0
639.0
633.0
617.0
620.0
636.0
635.0
622.0
624.0
638.0
639.0
623.0
619.0
635.0
637.0
617.0
609.0
646.0
717.0
790.0
856.0
924.0
981.0
1003.0
1002.0
961.0
833.0
649.0
499.0
460.0
499.0
534.0
552.0
576.0
606.0
614.0
605.0
608.0
626.0
630.0
618.0
614.0
628.0
633.0
619.0
610.0
621.0
627.0
611.0
600.0
611.0
621.0
615.0
604.0
614.0
630.0
625.0
612.0
620.0
636.0
635.0
620.0
621.0
634.0
632.0
615.0
609.0
619.0
616.0
597.0
586.0
595.0
596.0
578.0
568.0
582.0
595.0
588.0
584.0
601.0
620.0
616.0
603.0
609.0
616.0
603.0
581.0
578.0
586.0
579.0
562.0
560.0
574.0
574.0
559.0
556.0
570.0
573.0
559.0
551.0
563.0
567.0
553.0
541.0
551.0
560.0
549.0
538.0
545.0
553.0
541.0
526.0
531.0
545.0
541.0
527.0
527.0
540.0
538.0
523.0
522.0
537.0
539.0
526.0
522.0
537.0
543.0
530.0
525.0
539.0
548.0
538.0
526.0
538.0
546.0
535.0
520.0
526.0
537.0
529.0
516.0
524.0
544.0
543.0
531.0
535.0
553.0
556.0
544.0
540.0
548.0
545.0
528.0
521.0
536.0
543.0
531.0
524.0
537.0
546.0
536.0
524.0
535.0
545.0
532.0
513.0
531.0
587.0
659.0
733.0
808.0
873.0
916.0
938.0
902.0
799.0
630.0
449.0
366.0
383.0
423.0
448.0
471.0
504.0
522.0
516.0
510.0
524.0
534.0
526.0
517.0
529.0
543.0
537.0
524.0
530.0
546.0
542.0
531.0
536.0
553.0
554.0
542.0
544.0
561.0
568.0
560.0
561.0
579.0
586.0
574.0
567.0
579.0
584.0
568.0
555.0
561.0
566.0
550.0
529.0
528.0
535.0
523.0
508.0
518.0
538.0
539.0
532.0
543.0
564.0
567.0
556.0
555.0
566.0
562.0
542.0
531.0
539.0
540.0
526.0
516.0
528.0
537.0
525.0
515.0
526.0
537.0
529.0
518.0
526.0
540.0
534.0
521.0
525.0
538.0
532.0
517.0
518.0
533.0
533.0
519.0
516.0
531.0
536.0
523.0
517.0
531.0
538.0
527.0
519.0
530.0
535.0
522.0
509.0
520.0
532.0
524.0
511.0
518.0
532.0
527.0
515.0
520.0
532.0
528.0
511.0
509.0
522.0
522.0
509.0
508.0
525.0
532.0
521.0
517.0
533.0
543.0
534.0
529.0
543.0
550.0
535.0
522.0
531.0
543.0
536.0
522.0
527.0
540.0
532.0
514.0
516.0
531.0
526.0
503.0
495.0
524.0
569.0
638.0
726.0
825.0
892.0
918.0
949.0
935.0
819.0
617.0
417.0
337.0
353.0
387.0
422.0
464.0
502.0
506.0
496.0
503.0
524.0
524.0
511.0
515.0
534.0
535.0
521.0
521.0
539.0
542.0
528.0
522.0
542.0
554.0
544.0
537.0
554.0
568.0
561.0
552.0
569.0
585.0
577.0
568.0
578.0
595.0
588.0
569.0
570.0
585.0
579.0
557.0
553.0
564.0
559.0
540.0
535.0
556.0
566.0
557.0
558.0
583.0
600.0
590.0
580.0
591.0
598.0
579.0
560.0
562.0
569.0
553.0
534.0
537.0
553.0
549.0
534.0
537.0
556.0
555.0
538.0
536.0
551.0
551.0
532.0
527.0
547.0
555.0
540.0
533.0
548.0
557.0
543.0
529.0
542.0
555.0
545.0
531.0
540.0
551.0
541.0
525.0
534.0
549.0
544.0
530.0
534.0
551.0
551.0
535.0
534.0
551.0
552.0
535.0
529.0
544.0
548.0
532.0
521.0
537.0
549.0
536.0
526.0
542.0
559.0
554.0
543.0
555.0
571.0
565.0
552.0
557.0
572.0
564.0
542.0
541.0
561.0
565.0
552.0
551.0
566.0
570.0
551.0
540.0
552.0
559.0
541.0
525.0
535.0
565.0
608.0
679.0
776.0
862.0
901.0
933.0
973.0
938.0
792.0
582.0
414.0
365.0
377.0
398.0
435.0
480.0
502.0
498.0
500.0
518.0
524.0
507.0
500.0
515.0
523.0
512.0
504.0
520.0
533.0
521.0
506.0
517.0
534.0
526.0
512.0
520.0
537.0
532.0
517.0
518.0
534.0
532.0
515.0
513.0
529.0
528.0
508.0
496.0
508.0
510.0
490.0
474.0
483.0
488.0
468.0
453.0
465.0
480.0
474.0
466.0
482.0
504.0
501.0
487.0
490.0
506.0
502.0
484.0
481.0
491.0
482.0
458.0
450.0
464.0
464.0
448.0
442.0
456.0
461.0
445.0
436.0
451.0
461.0
447.0
434.0
444.0
456.0
444.0
428.0
436.0
450.0
442.0
425.0
427.0
442.0
439.0
421.0
420.0
436.0
436.0
417.0
410.0
422.0
423.0
405.0
394.0
409.0
417.0
403.0
390.0
403.0
414.0
399.0
384.0
392.0
406.0
396.0
383.0
391.0
408.0
406.0
392.0
398.0
419.0
420.0
405.0
405.0
423.0
421.0
398.0
388.0
403.0
410.0
394.0
384.0
396.0
404.0
389.0
378.0
388.0
399.0
385.0
367.0
372.0
399.0
438.0
506.0
599.0
686.0
735.0
762.0
795.0
768.0
640.0
443.0
277.0
219.0
234.0
262.0
297.0
343.0
372.0
370.0
366.0
383.0
394.0
383.0
370.0
381.0
392.0
383.0
369.0
378.0
393.0
389.0
379.0
386.0
407.0
407.0
392.0
394.0
416.0
422.0
409.0
409.0
428.0
435.0
420.0
412.0
426.0
433.0
416.0
400.0
414.0
426.0
410.0
392.0
399.0
411.0
400.0
383.0
392.0
412.0
412.0
403.0
414.0
439.0
443.0
429.0
427.0
442.0
441.0
420.0
408.0
419.0
418.0
396.0
384.0
396.0
405.0
390.0
380.0
392.0
406.0
395.0
383.0
394.0
412.0
408.0
396.0
407.0
426.0
425.0
409.0
410.0
429.0
432.0
416.0
415.0
433.0
436.0
418.0
409.0
424.0
433.0
419.0
410.0
426.0
435.0
421.0
407.0
420.0
434.0
424.0
409.0
420.0
436.0
427.0
408.0
412.0
430.0
425.0
406.0
405.0
424.0
429.0
416.0
419.0
444.0
458.0
449.0
447.0
466.0
472.0
452.0
440.0
456.0
472.0
462.0
452.0
467.0
483.0
473.0
458.0
467.0
484.0
476.0
454.0
455.0
487.0
530.0
596.0
688.0
786.0
850.0
881.0
914.0
902.0
784.0
584.0
392.0
318.0
331.0
362.0
395.0
442.0
478.0
481.0
474.0
490.0
509.0
503.0
490.0
501.0
520.0
515.0
499.0
502.0
524.0
526.0
510.0
513.0
535.0
542.0
529.0
527.0
549.0
561.0
550.0
543.0
562.0
577.0
566.0
555.0
566.0
579.0
568.0
553.0
560.0
572.0
561.0
542.0
542.0
552.0
544.0
522.0
522.0
543.0
550.0
542.0
548.0
576.0
589.0
578.0
572.0
589.0
593.0
572.0
556.0
563.0
568.0
550.0
534.0
544.0
556.0
544.0
527.0
536.0
555.0
550.0
533.0
540.0
559.0
560.0
544.0
545.0
566.0
568.0
550.0
545.0
562.0
568.0
551.0
544.0
560.0
571.0
557.0
547.0
563.0
576.0
563.0
548.0
561.0
579.0
574.0
561.0
569.0
586.0
580.0
559.0
560.0
579.0
578.0
561.0
560.0
580.0
584.0
566.0
564.0
588.0
604.0
599.0
596.0
615.0
624.0
604.0
586.0
597.0
610.0
600.0
587.0
594.0
607.0
601.0
588.0
596.0
615.0
611.0
589.0
582.0
601.0
630.0
681.0
768.0
869.0
939.0
971.0
1004.0
1006.0
990.0
842.0
639.0
499.0
466.0
481.0
512.0
560.0
602.0
607.0
602.0
616.0
636.0
631.0
614.0
618.0
636.0
633.0
616.0
614.0
632.0
631.0
611.0
606.0
624.0
631.0
617.0
613.0
628.0
637.0
625.0
619.0
636.0
647.0
636.0
620.0
628.0
639.0
630.0
612.0
616.0
629.0
620.0
597.0
593.0
605.0
600.0
579.0
576.0
594.0
602.0
593.0
596.0
622.0
637.0
627.0
620.0
634.0
639.0
623.0
603.0
610.0
618.0
600.0
582.0
588.0
603.0
596.0
581.0
587.0
604.0
601.0
586.0
587.0
605.0
606.0
589.0
587.0
607.0
611.0
594.0
586.0
602.0
608.0
593.0
583.0
596.0
606.0
592.0
579.0
593.0
607.0
598.0
584.0
591.0
605.0
596.0
578.0
580.0
592.0
586.0
567.0
569.0
588.0
590.0
577.0
575.0
594.0
603.0
592.0
589.0
609.0
621.0
609.0
596.0
605.0
614.0
601.0
590.0
604.0
620.0
612.0
598.0
606.0
624.0
619.0
604.0
607.0
623.0
618.0
600.0
619.0
690.0
776.0
840.0
900.0
971.0
1006.0
1006.0
998.0
900.0
725.0
537.0
453.0
476.0
528.0
555.0
569.0
596.0
621.0
616.0
598.0
603.0
622.0
619.0
603.0
604.0
621.0
620.0
602.0
600.0
619.0
624.0
609.0
606.0
626.0
635.0
621.0
614.0
633.0
646.0
639.0
629.0
640.0
654.0
644.0
635.0
642.0
656.0
644.0
624.0
623.0
634.0
624.0
603.0
598.0
609.0
604.0
585.0
582.0
603.0
615.0
609.0
610.0
633.0
642.0
630.0
619.0
631.0
639.0
622.0
603.0
610.0
624.0
615.0
600.0
608.0
625.0
621.0
606.0
612.0
632.0
633.0
618.0
619.0
636.0
636.0
618.0
612.0
626.0
631.0
614.0
605.0
619.0
627.0
611.0
600.0
614.0
627.0
615.0
600.0
608.0
621.0
612.0
596.0
601.0
613.0
603.0
582.0
579.0
594.0
590.0
569.0
567.0
585.0
590.0
575.0
571.0
590.0
598.0
588.0
581.0
598.0
608.0
586.0
565.0
572.0
581.0
567.0
550.0
557.0
569.0
559.0
540.0
544.0
560.0
557.0
537.0
532.0
542.0
548.0
567.0
637.0
736.0
813.0
854.0
894.0
958.0
961.0
852.0
680.0
515.0
414.0
389.0
412.0
464.0
513.0
526.0
523.0
538.0
559.0
558.0
549.0
557.0
581.0
583.0
572.0
576.0
599.0
606.0
594.0
596.0
618.0
630.0
620.0
617.0
639.0
655.0
647.0
642.0
660.0
674.0
665.0
656.0
670.0
688.0
680.0
665.0
671.0
686.0
680.0
660.0
659.0
672.0
666.0
646.0
643.0
660.0
664.0
649.0
647.0
670.0
683.0
670.0
663.0
680.0
689.0
667.0
644.0
646.0
648.0
629.0
606.0
610.0
621.0
608.0
589.0
593.0
607.0
600.0
580.0
578.0
592.0
590.0
571.0
566.0
579.0
579.0
559.0
548.0
561.0
564.0
543.0
530.0
540.0
546.0
528.0
509.0
518.0
526.0
511.0
490.0
491.0
500.0
485.0
460.0
455.0
463.0
451.0
426.0
419.0
430.0
426.0
403.0
393.0
408.0
413.0
397.0
390.0
410.0
424.0
413.0
403.0
418.0
427.0
408.0
387.0
393.0
406.0
396.0
382.0
387.0
404.0
399.0
383.0
390.0
411.0
414.0
397.0
390.0
405.0
426.0
463.0
547.0
656.0
738.0
772.0
807.0
846.0
788.0
618.0
410.0
272.0
241.0
270.0
319.0
381.0
430.0
445.0
442.0
456.0
480.0
484.0
474.0
483.0
507.0
513.0
500.0
500.0
520.0
527.0
512.0
509.0
532.0
543.0
532.0
523.0
541.0
557.0
550.0
542.0
558.0
576.0
573.0
563.0
576.0
596.0
590.0
572.0
574.0
588.0
584.0
564.0
563.0
582.0
582.0
564.0
562.0
584.0
596.0
592.0
596.0
622.0
639.0
631.0
623.0
636.0
642.0
629.0
611.0
618.0
627.0
611.0
593.0
601.0
617.0
612.0
594.0
599.0
617.0
617.0
602.0
603.0
623.0
625.0
608.0
604.0
624.0
630.0
614.0
604.0
618.0
626.0
612.0
600.0
612.0
621.0
606.0
588.0
595.0
608.0
598.0
581.0
586.0
602.0
600.0
583.0
582.0
597.0
592.0
573.0
568.0
583.0
584.0
568.0
563.0
582.0
590.0
578.0
572.0
592.0
608.0
596.0
583.0
593.0
600.0
586.0
567.0
574.0
587.0
578.0
562.0
566.0
583.0
579.0
561.0
563.0
580.0
579.0
555.0
543.0
565.0
603.0
656.0
736.0
831.0
901.0
932.0
967.0
970.0
878.0
692.0
489.0
390.0
398.0
435.0
472.0
523.0
568.0
579.0
573.0
584.0
603.0
604.0
591.0
593.0
615.0
623.0
612.0
612.0
634.0
639.0
630.0
626.0
643.0
656.0
646.0
639.0
653.0
668.0
657.0
642.0
651.0
666.0
657.0
642.0
649.0
666.0
660.0
643.0
642.0
657.0
649.0
625.0
614.0
622.0
614.0
585.0
569.0
582.0
586.0
569.0
560.0
577.0
588.0
571.0
552.0
558.0
560.0
534.0
502.0
495.0
495.0
475.0
450.0
448.0
461.0
454.0
439.0
440.0
459.0
460.0
444.0
443.0
461.0
466.0
449.0
439.0
457.0
469.0
454.0
439.0
452.0
466.0
455.0
445.0
460.0
476.0
465.0
448.0
455.0
473.0
468.0
453.0
458.0
476.0
472.0
453.0
451.0
468.0
469.0
452.0
449.0
471.0
483.0
470.0
464.0
486.0
502.0
492.0
484.0
504.0
522.0
513.0
498.0
506.0
518.0
507.0
490.0
499.0
518.0
513.0
495.0
501.0
520.0
520.0
502.0
499.0
514.0
509.0
485.0
490.0
550.0
636.0
703.0
769.0
845.0
909.0
937.0
884.0
769.0
607.0
427.0
336.0
354.0
409.0
441.0
455.0
481.0
512.0
515.0
501.0
506.0
528.0
532.0
516.0
515.0
535.0
543.0
530.0
528.0
550.0
563.0
552.0
546.0
563.0
578.0
570.0
563.0
580.0
600.0
596.0
584.0
594.0
616.0
612.0
594.0
595.0
609.0
602.0
580.0
574.0
587.0
584.0
560.0
549.0
560.0
561.0
540.0
530.0
550.0
562.0
549.0
539.0
556.0
569.0
556.0
537.0
543.0
550.0
531.0
507.0
508.0
520.0
508.0
485.0
484.0
500.0
498.0
480.0
478.0
494.0
493.0
471.0
463.0
479.0
484.0
465.0
454.0
471.0
484.0
471.0
456.0
468.0
478.0
463.0
444.0
450.0
462.0
450.0
430.0
432.0
447.0
441.0
418.0
415.0
429.0
423.0
402.0
396.0
411.0
410.0
390.0
383.0
398.0
407.0
392.0
386.0
405.0
419.0
408.0
399.0
417.0
439.0
430.0
418.0
429.0
442.0
432.0
417.0
425.0
444.0
445.0
432.0
436.0
457.0
461.0
447.0
448.0
469.0
476.0
457.0
447.0
479.0
533.0
597.0
668.0
755.0
824.0
866.0
895.0
875.0
774.0
604.0
431.0
358.0
374.0
401.0
420.0
451.0
489.0
501.0
490.0
494.0
517.0
521.0
502.0
496.0
515.0
524.0
507.0
497.0
515.0
526.0
514.0
503.0
520.0
536.0
528.0
517.0
531.0
553.0
550.0
539.0
550.0
569.0
565.0
550.0
552.0
571.0
569.0
550.0
546.0
562.0
561.0
536.0
523.0
534.0
536.0
516.0
506.0
523.0
537.0
527.0
521.0
543.0
565.0
560.0
547.0
555.0
569.0
558.0
536.0
536.0
547.0
540.0
519.0
517.0
532.0
531.0
512.0
509.0
531.0
536.0
519.0
510.0
526.0
536.0
521.0
510.0
526.0
539.0
527.0
516.0
530.0
545.0
534.0
516.0
522.0
535.0
526.0
507.0
511.0
529.0
527.0
507.0
506.0
523.0
524.0
505.0
497.0
510.0
513.0
498.0
489.0
504.0
512.0
495.0
480.0
492.0
507.0
497.0
485.0
498.0
518.0
514.0
499.0
507.0
524.0
516.0
491.0
488.0
505.0
501.0
483.0
480.0
498.0
500.0
481.0
472.0
488.0
496.0
482.0
471.0
482.0
488.0
484.0
516.0
609.0
706.0
765.0
803.0
864.0
914.0
866.0
722.0
552.0
408.0
333.0
325.0
369.0
428.0
460.0
464.0
473.0
502.0
512.0
499.0
496.0
521.0
534.0
521.0
514.0
532.0
547.0
533.0
520.0
537.0
555.0
550.0
538.0
548.0
566.0
563.0
546.0
553.0
576.0
579.0
566.0
568.0
589.0
593.0
577.0
572.0
591.0
596.0
578.0
566.0
579.0
584.0
566.0
552.0
564.0
575.0
565.0
556.0
572.0
594.0
590.0
578.0
588.0
609.0
603.0
583.0
581.0
593.0
582.0
559.0
554.0
568.0
568.0
546.0
537.0
552.0
558.0
539.0
526.0
540.0
549.0
535.0
522.0
535.0
548.0
536.0
520.0
528.0
542.0
531.0
512.0
516.0
533.0
526.0
503.0
499.0
515.0
516.0
498.0
494.0
512.0
514.0
493.0
482.0
498.0
502.0
483.0
469.0
482.0
491.0
473.0
456.0
464.0
473.0
459.0
442.0
450.0
469.0
464.0
446.0
452.0
475.0
480.0
465.0
464.0
476.0
472.0
450.0
443.0
460.0
464.0
447.0
438.0
453.0
459.0
442.0
430.0
443.0
453.0
436.0
414.0
430.0
477.0
540.0
612.0
702.0
787.0
826.0
850.0
841.0
748.0
565.0
356.0
233.0
234.0
277.0
310.0
345.0
392.0
418.0
411.0
407.0
426.0
437.0
422.0
410.0
423.0
436.0
422.0
403.0
411.0
426.0
414.0
397.0
405.0
423.0
420.0
403.0
403.0
422.0
426.0
410.0
410.0
429.0
434.0
416.0
408.0
424.0
430.0
412.0
398.0
409.0
416.0
400.0
384.0
392.0
402.0
387.0
369.0
374.0
388.0
383.0
373.0
383.0
407.0
408.0
394.0
396.0
415.0
417.0
395.0
385.0
396.0
392.0
372.0
361.0
377.0
383.0
368.0
354.0
367.0
378.0
364.0
352.0
366.0
381.0
373.0
357.0
365.0
382.0
378.0
360.0
362.0
378.0
376.0
357.0
356.0
374.0
373.0
352.0
343.0
360.0
366.0
351.0
342.0
355.0
362.0
345.0
331.0
343.0
352.0
336.0
320.0
326.0
339.0
327.0
310.0
316.0
331.0
324.0
306.0
310.0
332.0
336.0
323.0
325.0
348.0
354.0
335.0
322.0
334.0
340.0
324.0
315.0
333.0
346.0
332.0
320.0
334.0
349.0
338.0
321.0
330.0
342.0
330.0
327.0
375.0
469.0
554.0
614.0
672.0
741.0
784.0
731.0
606.0
448.0
284.0
177.0
169.0
230.0
282.0
297.0
307.0
338.0
362.0
353.0
343.0
360.0
383.0
377.0
367.0
381.0
402.0
401.0
387.0
393.0
415.0
416.0
397.0
400.0
425.0
433.0
419.0
418.0
442.0
452.0
437.0
430.0
452.0
465.0
454.0
444.0
459.0
472.0
457.0
439.0
446.0
457.0
445.0
425.0
428.0
440.0
430.0
416.0
428.0
455.0
460.0
449.0
451.0
471.0
473.0
453.0
444.0
458.0
459.0
434.0
418.0
429.0
440.0
425.0
407.0
416.0
430.0
419.0
407.0
420.0
441.0
435.0
417.0
419.0
435.0
432.0
416.0
420.0
442.0
443.0
421.0
414.0
432.0
436.0
415.0
405.0
422.0
429.0
410.0
394.0
409.0
422.0
409.0
395.0
407.0
424.0
414.0
402.0
416.0
438.0
433.0
416.0
419.0
438.0
434.0
413.0
411.0
428.0
426.0
406.0
400.0
421.0
430.0
417.0
413.0
434.0
449.0
438.0
431.0
451.0
468.0
454.0
433.0
440.0
451.0
442.0
424.0
433.0
453.0
448.0
430.0
433.0
450.0
449.0
431.0
429.0
444.0
444.0
434.0
463.0
553.0
649.0
713.0
766.0
830.0
885.0
858.0
742.0
597.0
436.0
314.0
278.0
323.0
382.0
404.0
412.0
433.0
462.0
465.0
451.0
456.0
480.0
483.0
467.0
466.0
487.0
494.0
477.0
470.0
490.0
502.0
486.0
476.0
494.0
510.0
502.0
496.0
516.0
540.0
535.0
524.0
540.0
565.0
564.0
548.0
555.0
573.0
567.0
545.0
542.0
557.0
556.0
536.0
528.0
543.0
546.0
528.0
522.0
547.0
565.0
558.0
555.0
576.0
592.0
579.0
564.0
574.0
585.0
570.0
550.0
553.0
566.0
560.0
543.0
549.0
570.0
571.0
558.0
562.0
586.0
592.0
574.0
569.0
590.0
599.0
582.0
573.0
595.0
611.0
600.0
591.0
607.0
622.0
608.0
592.0
605.0
625.0
617.0
601.0
610.0
631.0
628.0
612.0
615.0
635.0
637.0
619.0
617.0
638.0
642.0
630.0
625.0
644.0
654.0
639.0
627.0
642.0
656.0
646.0
639.0
654.0
672.0
668.0
658.0
674.0
700.0
700.0
688.0
697.0
714.0
704.0
680.0
678.0
699.0
702.0
685.0
682.0
704.0
712.0
695.0
686.0
702.0
710.0
692.0
679.0
694.0
714.0
731.0
780.0
879.0
971.0
1004.0
1006.0
1008.0
1009.0
1004.0
895.0
717.0
602.0
562.0
567.0
604.0
653.0
678.0
676.0
685.0
716.0
730.0
720.0
716.0
740.0
756.0
745.0
734.0
748.0
762.0
747.0
730.0
741.0
759.0
753.0
739.0
746.0
770.0
774.0
762.0
770.0
794.0
798.0
781.0
780.0
801.0
807.0
788.0
781.0
800.0
806.0
784.0
768.0
781.0
788.0
767.0
748.0
759.0
775.0
763.0
747.0
760.0
781.0
781.0
769.0
776.0
796.0
791.0
767.0
761.0
776.0
771.0
743.0
732.0
750.0
754.0
734.0
725.0
742.0
752.0
734.0
722.0
738.0
752.0
737.0
718.0
726.0
737.0
719.0
694.0
698.0
716.0
706.0
684.0
684.0
700.0
693.0
669.0
667.0
689.0
689.0
665.0
652.0
670.0
675.0
651.0
640.0
657.0
663.0
641.0
627.0
640.0
656.0
640.0
623.0
636.0
652.0
641.0
619.0
623.0
639.0
630.0
606.0
605.0
626.0
626.0
604.0
602.0
625.0
632.0
615.0
615.0
640.0
649.0
630.0
614.0
627.0
638.0
619.0
602.0
617.0
635.0
623.0
608.0
624.0
645.0
639.0
623.0
631.0
648.0
640.0
635.0
679.0
781.0
865.0
907.0
948.0
1001.0
1005.0
964.0
829.0
668.0
520.0
434.0
436.0
500.0
554.0
566.0
568.0
594.0
619.0
612.0
595.0
609.0
635.0
631.0
611.0
616.0
638.0
637.0
617.0
616.0
639.0
640.0
622.0
617.0
638.0
641.0
620.0
611.0
633.0
646.0
634.0
620.0
634.0
647.0
634.0
615.0
627.0
644.0
633.0
608.0
609.0
623.0
612.0
584.0
581.0
599.0
596.0
572.0
568.0
594.0
603.0
587.0
582.0
606.0
615.0
595.0
578.0
593.0
602.0
578.0
554.0
564.0
576.0
559.0
534.0
541.0
558.0
546.0
524.0
528.0
549.0
543.0
522.0
522.0
546.0
549.0
530.0
528.0
552.0
556.0
530.0
515.0
531.0
540.0
519.0
508.0
531.0
546.0
528.0
508.0
522.0
537.0
522.0
500.0
513.0
536.0
528.0
506.0
508.0
532.0
530.0
505.0
502.0
527.0
532.0
512.0
505.0
528.0
533.0
507.0
493.0
512.0
528.0
514.0
503.0
525.0
545.0
533.0
519.0
540.0
566.0
555.0
531.0
540.0
559.0
548.0
525.0
530.0
556.0
556.0
534.0
535.0
562.0
566.0
543.0
538.0
560.0
561.0
538.0
552.0
639.0
750.0
832.0
895.0
963.0
1004.0
1003.0
937.0
788.0
605.0
430.0
359.0
398.0
478.0
520.0
528.0
550.0
587.0
596.0
579.0
578.0
605.0
614.0
592.0
583.0
608.0
619.0
600.0
589.0
611.0
626.0
609.0
593.0
613.0
634.0
622.0
602.0
618.0
641.0
637.0
619.0
630.0
655.0
656.0
638.0
638.0
662.0
666.0
644.0
638.0
657.0
663.0
639.0
627.0
645.0
654.0
637.0
622.0
640.0
661.0
654.0
644.0
664.0
689.0
681.0
661.0
666.0
682.0
668.0
639.0
636.0
651.0
646.0
627.0
626.0
645.0
648.0
630.0
624.0
643.0
651.0
636.0
625.0
641.0
653.0
638.0
621.0
633.0
644.0
630.0
611.0
621.0
637.0
627.0
610.0
616.0
632.0
623.0
602.0
606.0
631.0
633.0
614.0
611.0
630.0
632.0
609.0
596.0
613.0
622.0
600.0
589.0
608.0
622.0
605.0
587.0
601.0
616.0
600.0
581.0
593.0
612.0
604.0
583.0
587.0
608.0
610.0
594.0
597.0
619.0
620.0
599.0
592.0
607.0
605.0
580.0
570.0
590.0
599.0
580.0
564.0
578.0
589.0
573.0
555.0
567.0
580.0
562.0
538.0
566.0
641.0
723.0
792.0
870.0
940.0
983.0
985.0
924.0
803.0
616.0
429.0
358.0
396.0
450.0
470.0
485.0
520.0
541.0
529.0
514.0
528.0
545.0
533.0
516.0
529.0
548.0
540.0
522.0
529.0
548.0
542.0
521.0
522.0
543.0
544.0
528.0
530.0
552.0
558.0
539.0
531.0
552.0
564.0
546.0
535.0
553.0
564.0
546.0
526.0
535.0
544.0
527.0
505.0
510.0
524.0
514.0
492.0
498.0
522.0
521.0
506.0
514.0
544.0
551.0
535.0
532.0
549.0
551.0
526.0
510.0
521.0
524.0
503.0
488.0
505.0
519.0
505.0
491.0
505.0
521.0
509.0
491.0
502.0
523.0
517.0
497.0
503.0
525.0
520.0
498.0
498.0
517.0
516.0
493.0
486.0
503.0
507.0
487.0
477.0
496.0
506.0
488.0
474.0
489.0
503.0
488.0
470.0
482.0
499.0
489.0
470.0
480.0
499.0
494.0
475.0
478.0
501.0
499.0
474.0
468.0
487.0
492.0
473.0
466.0
485.0
492.0
475.0
468.0
492.0
510.0
502.0
492.0
506.0
517.0
500.0
480.0
490.0
511.0
504.0
487.0
495.0
516.0
512.0
492.0
494.0
516.0
516.0
492.0
482.0
507.0
545.0
594.0
675.0
778.0
854.0
884.0
907.0
910.0
825.0
652.0
462.0
359.0
352.0
375.0
398.0
439.0
480.0
489.0
480.0
488.0
507.0
506.0
488.0
490.0
511.0
514.0
494.0
487.0
504.0
509.0
495.0
486.0
504.0
516.0
501.0
491.0
508.0
525.0
517.0
504.0
515.0
531.0
524.0
509.0
517.0
532.0
529.0
511.0
512.0
527.0
521.0
495.0
484.0
493.0
487.0
464.0
452.0
468.0
474.0
462.0
456.0
477.0
494.0
485.0
472.0
485.0
498.0
484.0
465.0
468.0
476.0
461.0
438.0
439.0
454.0
448.0
428.0
425.0
441.0
440.0
424.0
421.0
440.0
447.0
431.0
422.0
437.0
446.0
430.0
418.0
432.0
442.0
428.0
414.0
424.0
437.0
426.0
410.0
419.0
435.0
428.0
410.0
413.0
428.0
424.0
404.0
401.0
418.0
418.0
400.0
396.0
414.0
419.0
401.0
396.0
415.0
425.0
410.0
397.0
409.0
421.0
409.0
394.0
406.0
424.0
421.0
411.0
423.0
446.0
447.0
436.0
442.0
460.0
457.0
438.0
430.0
440.0
440.0
425.0
423.0
444.0
453.0
438.0
430.0
445.0
452.0
436.0
422.0
433.0
442.0
438.0
460.0
543.0
645.0
710.0
742.0
780.0
821.0
779.0
639.0
479.0
342.0
252.0
236.0
278.0
346.0
383.0
390.0
398.0
427.0
442.0
430.0
421.0
437.0
450.0
441.0
432.0
448.0
465.0
455.0
440.0
452.0
472.0
465.0
451.0
458.0
478.0
481.0
470.0
478.0
501.0
504.0
486.0
483.0
505.0
512.0
498.0
494.0
514.0
524.0
507.0
491.0
504.0
516.0
502.0
484.0
491.0
503.0
489.0
472.0
483.0
507.0
510.0
499.0
511.0
536.0
537.0
516.0
510.0
523.0
517.0
487.0
475.0
492.0
497.0
480.0
472.0
491.0
500.0
482.0
468.0
484.0
499.0
486.0
471.0
482.0
497.0
487.0
468.0
476.0
495.0
489.0
471.0
474.0
492.0
489.0
469.0
466.0
484.0
486.0
466.0
458.0
476.0
485.0
465.0
455.0
475.0
488.0
473.0
460.0
477.0
494.0
483.0
468.0
482.0
500.0
492.0
474.0
480.0
497.0
492.0
472.0
474.0
497.0
501.0
490.0
496.0
520.0
525.0
512.0
512.0
538.0
550.0
530.0
512.0
523.0
533.0
520.0
506.0
523.0
543.0
535.0
522.0
534.0
552.0
546.0
531.0
538.0
553.0
543.0
527.0
559.0
649.0
744.0
808.0
861.0
917.0
960.0
930.0
823.0
669.0
493.0
361.0
335.0
393.0
458.0
485.0
499.0
531.0
556.0
549.0
532.0
538.0
553.0
546.0
532.0
538.0
560.0
562.0
546.0
546.0
567.0
570.0
554.0
552.0
573.0
581.0
563.0
552.0
569.0
580.0
567.0
555.0
570.0
586.0
572.0
553.0
564.0
582.0
572.0
549.0
552.0
566.0
553.0
527.0
526.0
543.0
543.0
524.0
525.0
552.0
562.0
551.0
552.0
576.0
586.0
569.0
557.0
569.0
572.0
545.0
521.0
529.0
540.0
526.0
505.0
513.0
528.0
520.0
503.0
510.0
533.0
531.0
513.0
514.0
536.0
539.0
517.0
512.0
531.0
536.0
517.0
506.0
520.0
529.0
513.0
500.0
516.0
527.0
510.0
499.0
514.0
529.0
515.0
495.0
502.0
519.0
510.0
493.0
503.0
528.0
527.0
509.0
508.0
529.0
531.0
509.0
504.0
525.0
533.0
516.0
508.0
530.0
538.0
518.0
503.0
522.0
536.0
529.0
517.0
532.0
548.0
535.0
510.0
510.0
525.0
517.0
497.0
499.0
520.0
520.0
501.0
499.0
521.0
527.0
508.0
498.0
513.0
517.0
518.0
561.0
665.0
770.0
833.0
872.0
919.0
959.0
895.0
730.0
540.0
379.0
298.0
303.0
369.0
442.0
479.0
489.0
507.0
536.0
544.0
530.0
530.0
549.0
554.0
540.0
536.0
559.0
571.0
558.0
551.0
570.0
585.0
575.0
564.0
579.0
596.0
588.0
577.0
595.0
620.0
618.0
604.0
610.0
627.0
623.0
607.0
608.0
629.0
630.0
611.0
605.0
621.0
620.0
600.0
590.0
606.0
613.0
596.0
586.0
605.0
625.0
620.0
614.0
631.0
648.0
640.0
623.0
625.0
633.0
620.0
596.0
592.0
606.0
602.0
583.0
583.0
604.0
608.0
588.0
579.0
596.0
603.0
584.0
571.0
584.0
591.0
575.0
563.0
580.0
596.0
583.0
566.0
576.0
589.0
574.0
552.0
558.0
576.0
571.0
554.0
558.0
576.0
572.0
549.0
542.0
560.0
563.0
545.0
539.0
558.0
564.0
543.0
530.0
546.0
558.0
542.0
528.0
542.0
558.0
547.0
532.0
544.0
565.0
564.0
556.0
567.0
587.0
580.0
555.0
548.0
562.0
560.0
542.0
542.0
566.0
570.0
550.0
541.0
561.0
577.0
566.0
555.0
568.0
574.0
557.0
560.0
626.0
726.0
805.0
862.0
917.0
971.0
978.0
891.0
421.0
400.0
405.0
418.0
406.0
388.0
394.0
412.0
408.0
388.0
387.0
405.0
405.0
383.0
374.0
394.0
405.0
385.0
372.0
387.0
398.0
383.0
370.0
385.0
410.0
405.0
395.0
413.0
435.0
432.0
415.0
424.0
444.0
440.0
411.0
403.0
425.0
427.0
408.0
404.0
424.0
429.0
407.0
398.0
420.0
429.0
407.0
387.0
395.0
402.0
404.0
439.0
527.0
615.0
650.0
670.0
722.0
742.0
640.0
469.0
312.0
223.0
207.0
224.0
276.0
349.0
384.0
382.0
379.0
396.0
399.0
375.0
358.0
375.0
383.0
367.0
347.0
360.0
374.0
358.0
341.0
357.0
379.0
373.0
355.0
368.0
391.0
391.0
376.0
377.0
398.0
395.0
373.0
369.0
388.0
389.0
365.0
354.0
376.0
383.0
358.0
336.0
348.0
360.0
344.0
322.0
332.0
347.0
334.0
315.0
333.0
367.0
374.0
366.0
381.0
407.0
403.0
383.0
380.0
398.0
395.0
372.0
365.0
384.0
390.0
370.0
359.0
379.0
390.0
378.0
366.0
385.0
405.0
393.0
383.0
399.0
421.0
414.0
397.0
406.0
430.0
426.0
406.0
409.0
430.0
427.0
408.0
407.0
431.0
438.0
422.0
414.0
436.0
444.0
422.0
409.0
428.0
443.0
429.0
417.0
435.0
456.0
451.0
437.0
454.0
481.0
480.0
468.0
480.0
504.0
499.0
474.0
475.0
499.0
501.0
480.0
477.0
506.0
520.0
503.0
492.0
512.0
521.0
497.0
483.0
526.0
603.0
675.0
744.0
825.0
893.0
924.0
891.0
783.0
635.0
446.0
316.0
310.0
381.0
432.0
451.0
479.0
526.0
546.0
530.0
525.0
549.0
560.0
546.0
540.0
566.0
584.0
573.0
560.0
581.0
600.0
590.0
574.0
586.0
607.0
600.0
583.0
594.0
622.0
623.0
603.0
608.0
632.0
635.0
614.0
609.0
630.0
636.0
614.0
602.0
618.0
626.0
603.0
583.0
601.0
618.0
606.0
596.0
618.0
641.0
639.0
630.0
643.0
667.0
662.0
639.0
639.0
654.0
647.0
619.0
605.0
617.0
615.0
590.0
581.0
607.0
622.0
606.0
595.0
617.0
632.0
615.0
598.0
613.0
630.0
616.0
596.0
603.0
627.0
620.0
598.0
604.0
627.0
623.0
602.0
599.0
614.0
610.0
599.0
604.0
630.0
635.0
616.0
603.0
618.0
627.0
608.0
593.0
608.0
626.0
617.0
606.0
623.0
642.0
639.0
624.0
632.0
653.0
647.0
625.0
619.0
634.0
630.0
612.0
610.0
627.0
625.0
603.0
595.0
614.0
620.0
596.0
574.0
584.0
611.0
644.0
714.0
812.0
895.0
930.0
944.0
935.0
843.0
677.0
494.0
392.0
399.0
442.0
486.0
540.0
596.0
617.0
608.0
606.0
621.0
627.0
611.0
603.0
627.0
639.0
625.0
613.0
630.0
640.0
626.0
612.0
625.0
638.0
634.0
626.0
640.0
665.0
664.0
654.0
659.0
676.0
673.0
653.0
648.0
666.0
667.0
644.0
634.0
644.0
648.0
627.0
609.0
621.0
628.0
610.0
594.0
607.0
625.0
621.0
617.0
637.0
656.0
648.0
628.0
628.0
636.0
615.0
580.0
576.0
596.0
594.0
569.0
559.0
569.0
563.0
533.0
520.0
538.0
540.0
518.0
503.0
520.0
531.0
514.0
494.0
508.0
524.0
507.0
483.0
486.0
499.0
485.0
457.0
452.0
463.0
455.0
433.0
431.0
447.0
440.0
410.0
399.0
418.0
423.0
404.0
393.0
408.0
416.0
396.0
382.0
395.0
409.0
395.0
382.0
398.0
420.0
410.0
386.0
383.0
392.0
383.0
365.0
367.0
388.0
388.0
370.0
370.0
391.0
394.0
375.0
363.0
371.0
365.0
358.0
401.0
508.0
608.0
658.0
693.0
753.0
782.0
685.0
504.0
325.0
205.0
166.0
192.0
259.0
326.0
353.0
353.0
370.0
401.0
408.0
391.0
389.0
411.0
418.0
402.0
398.0
424.0
440.0
430.0
421.0
439.0
454.0
437.0
420.0
440.0
467.0
462.0
447.0
456.0
476.0
471.0
452.0
453.0
473.0
474.0
455.0
454.0
470.0
469.0
447.0
439.0
455.0
458.0
436.0
423.0
446.0
465.0
454.0
447.0
468.0
491.0
487.0
474.0
488.0
507.0
495.0
466.0
464.0
480.0
472.0
446.0
442.0
459.0
457.0
433.0
432.0
457.0
465.0
448.0
441.0
463.0
473.0
453.0
440.0
456.0
468.0
455.0
437.0
446.0
459.0
447.0
430.0
437.0
456.0
450.0
431.0
435.0
456.0
455.0
433.0
429.0
449.0
449.0
427.0
417.0
432.0
442.0
426.0
417.0
435.0
449.0
437.0
427.0
449.0
475.0
468.0
449.0
457.0
475.0
465.0
442.0
448.0
470.0
467.0
447.0
446.0
464.0
463.0
446.0
444.0
459.0
453.0
428.0
443.0
527.0
625.0
688.0
740.0
808.0
878.0
865.0
744.0
584.0
408.0
278.0
246.0
298.0
376.0
415.0
425.0
445.0
476.0
480.0
463.0
463.0
491.0
499.0
478.0
470.0
493.0
506.0
490.0
480.0
498.0
511.0
497.0
485.0
505.0
526.0
517.0
502.0
516.0
538.0
536.0
518.0
525.0
547.0
546.0
526.0
525.0
546.0
546.0
522.0
514.0
533.0
538.0
520.0
511.0
529.0
539.0
523.0
516.0
543.0
569.0
563.0
555.0
573.0
592.0
577.0
552.0
554.0
567.0
554.0
526.0
524.0
540.0
533.0
505.0
498.0
520.0
526.0
505.0
496.0
516.0
527.0
515.0
502.0
520.0
532.0
517.0
502.0
518.0
533.0
517.0
497.0
508.0
527.0
519.0
499.0
503.0
523.0
521.0
499.0
497.0
518.0
517.0
495.0
488.0
509.0
518.0
507.0
505.0
530.0
546.0
532.0
525.0
549.0
573.0
566.0
552.0
564.0
579.0
565.0
546.0
555.0
576.0
567.0
544.0
550.0
576.0
578.0
560.0
555.0
570.0
563.0
545.0
565.0
647.0
739.0
800.0
855.0
926.0
995.0
990.0
893.0
742.0
562.0
412.0
371.0
416.0
482.0
512.0
520.0
544.0
574.0
576.0
558.0
560.0
582.0
581.0
561.0
563.0
587.0
595.0
575.0
571.0
593.0
606.0
589.0
575.0
590.0
602.0
587.0
572.0
588.0
609.0
598.0
578.0
588.0
607.0
601.0
580.0
583.0
603.0
599.0
575.0
569.0
587.0
588.0
565.0
555.0
571.0
577.0
561.0
557.0
580.0
599.0
589.0
580.0
593.0
605.0
593.0
576.0
580.0
593.0
581.0
558.0
559.0
574.0
566.0
546.0
547.0
568.0
568.0
548.0
546.0
569.0
576.0
557.0
546.0
563.0
572.0
556.0
542.0
556.0
571.0
558.0
541.0
552.0
568.0
556.0
536.0
544.0
562.0
555.0
535.0
539.0
560.0
560.0
540.0
535.0
553.0
555.0
537.0
534.0
557.0
573.0
560.0
553.0
578.0
597.0
585.0
571.0
585.0
596.0
577.0
557.0
566.0
584.0
579.0
562.0
569.0
590.0
588.0
570.0
574.0
596.0
589.0
555.0
553.0
607.0
676.0
740.0
806.0
883.0
943.0
976.0
947.0
853.0
701.0
512.0
396.0
407.0
468.0
503.0
522.0
555.0
588.0
588.0
572.0
577.0
596.0
600.0
585.0
588.0
610.0
612.0
589.0
582.0
602.0
609.0
590.0
580.0
600.0
615.0
599.0
582.0
597.0
616.0
605.0
589.0
600.0
619.0
611.0
589.0
593.0
611.0
601.0
575.0
572.0
589.0
583.0
559.0
553.0
571.0
574.0
557.0
552.0
576.0
594.0
584.0
579.0
601.0
612.0
595.0
576.0
582.0
587.0
563.0
534.0
540.0
556.0
545.0
520.0
521.0
540.0
536.0
513.0
510.0
530.0
531.0
509.0
500.0
516.0
519.0
494.0
478.0
492.0
500.0
482.0
464.0
475.0
487.0
470.0
449.0
455.0
468.0
455.0
434.0
440.0
460.0
456.0
433.0
429.0
446.0
443.0
422.0
420.0
446.0
455.0
438.0
434.0
460.0
476.0
467.0
463.0
486.0
504.0
489.0
467.0
474.0
488.0
479.0
466.0
477.0
500.0
495.0
476.0
489.0
514.0
512.0
487.0
478.0
504.0
541.0
589.0
667.0
770.0
843.0
876.0
920.0
936.0
832.0
630.0
417.0
321.0
335.0
371.0
403.0
452.0
491.0
502.0
491.0
505.0
535.0
537.0
518.0
518.0
538.0
542.0
527.0
521.0
537.0
538.0
515.0
506.0
533.0
549.0
533.0
517.0
530.0
543.0
531.0
521.0
539.0
551.0
536.0
518.0
525.0
540.0
527.0
505.0
512.0
534.0
530.0
508.0
508.0
532.0
538.0
528.0
523.0
545.0
558.0
556.0
562.0
601.0
623.0
612.0
600.0
611.0
617.0
597.0
578.0
586.0
606.0
602.0
583.0
592.0
613.0
614.0
601.0
606.0
628.0
637.0
628.0
631.0
653.0
660.0
645.0
639.0
662.0
678.0
666.0
658.0
675.0
686.0
666.0
647.0
658.0
675.0
661.0
639.0
644.0
662.0
662.0
651.0
659.0
684.0
683.0
665.0
668.0
696.0
710.0
700.0
703.0
734.0
747.0
737.0
734.0
756.0
769.0
753.0
739.0
752.0
758.0
738.0
718.0
730.0
752.0
745.0
724.0
726.0
740.0
725.0
694.0
708.0
777.0
859.0
926.0
996.0
1008.0
1010.0
1010.0
1009.0
1007.0
910.0
690.0
575.0
589.0
635.0
656.0
671.0
706.0
736.0
732.0
715.0
728.0
759.0
764.0
755.0
760.0
782.0
782.0
764.0
762.0
787.0
795.0
777.0
769.0
790.0
806.0
794.0
784.0
799.0
808.0
789.0
770.0
782.0
794.0
783.0
765.0
771.0
782.0
772.0
755.0
759.0
771.0
760.0
739.0
742.0
764.0
767.0
748.0
742.0
758.0
766.0
750.0
743.0
760.0
765.0
742.0
719.0
723.0
728.0
703.0
676.0
688.0
708.0
706.0
693.0
699.0
716.0
709.0
688.0
684.0
699.0
696.0
673.0
660.0
665.0
658.0
633.0
619.0
623.0
620.0
608.0
602.0
615.0
618.0
599.0
581.0
584.0
588.0
568.0
540.0
534.0
538.0
520.0
494.0
492.0
503.0
494.0
472.0
467.0
481.0
480.0
468.0
476.0
505.0
516.0
495.0
476.0
481.0
482.0
459.0
441.0
453.0
460.0
442.0
420.0
427.0
444.0
437.0
409.0
399.0
415.0
439.0
488.0
573.0
663.0
723.0
766.0
826.0
828.0
714.0
525.0
326.0
227.0
222.0
245.0
280.0
334.0
373.0
375.0
373.0
386.0
403.0
392.0
379.0
384.0
404.0
402.0
383.0
383.0
395.0
391.0
379.0
382.0
398.0
399.0
385.0
383.0
404.0
413.0
402.0
402.0
424.0
436.0
425.0
410.0
418.0
428.0
419.0
406.0
416.0
432.0
423.0
402.0
404.0
422.0
420.0
404.0
404.0
425.0
430.0
421.0
424.0
442.0
446.0
429.0
423.0
438.0
442.0
423.0
410.0
423.0
428.0
409.0
393.0
406.0
423.0
417.0
403.0
411.0
429.0
427.0
412.0
419.0
436.0
435.0
424.0
426.0
446.0
451.0
434.0
429.0
447.0
454.0
440.0
438.0
458.0
468.0
455.0
445.0
460.0
473.0
461.0
448.0
458.0
471.0
463.0
451.0
464.0
484.0
479.0
474.0
489.0
516.0
524.0
509.0
506.0
518.0
514.0
488.0
476.0
494.0
505.0
494.0
487.0
502.0
506.0
493.0
488.0
508.0
518.0
504.0
508.0
567.0
658.0
731.0
785.0
845.0
922.0
947.0
854.0
694.0
521.0
380.0
325.0
349.0
416.0
468.0
486.0
500.0
534.0
554.0
544.0
534.0
550.0
571.0
564.0
550.0
564.0
582.0
575.0
563.0
572.0
590.0
590.0
575.0
583.0
606.0
610.0
596.0
598.0
614.0
613.0
589.0
583.0
606.0
617.0
604.0
596.0
615.0
624.0
609.0
598.0
613.0
626.0
612.0
594.0
605.0
623.0
619.0
609.0
622.0
643.0
645.0
631.0
634.0
652.0
649.0
626.0
616.0
629.0
632.0
609.0
590.0
601.0
611.0
603.0
599.0
614.0
623.0
608.0
595.0
610.0
627.0
619.0
605.0
617.0
637.0
634.0
618.0
622.0
641.0
642.0
625.0
619.0
636.0
639.0
626.0
619.0
631.0
634.0
617.0
606.0
618.0
630.0
622.0
617.0
636.0
652.0
643.0
634.0
646.0
666.0
665.0
650.0
651.0
661.0
651.0
632.0
629.0
640.0
639.0
628.0
625.0
645.0
651.0
634.0
623.0
631.0
632.0
613.0
620.0
680.0
765.0
829.0
880.0
945.0
1005.0
1005.0
958.0
815.0
631.0
476.0
423.0
462.0
530.0
574.0
589.0
607.0
638.0
647.0
635.0
630.0
645.0
654.0
640.0
632.0
646.0
661.0
652.0
641.0
656.0
674.0
665.0
650.0
662.0
682.0
677.0
661.0
669.0
688.0
684.0
663.0
658.0
677.0
675.0
652.0
645.0
663.0
664.0
644.0
635.0
647.0
652.0
633.0
620.0
636.0
646.0
638.0
623.0
633.0
652.0
650.0
638.0
643.0
656.0
647.0
626.0
621.0
631.0
621.0
598.0
591.0
606.0
606.0
586.0
577.0
590.0
597.0
583.0
573.0
588.0
596.0
580.0
565.0
571.0
583.0
572.0
557.0
563.0
578.0
568.0
548.0
550.0
567.0
565.0
551.0
551.0
563.0
559.0
538.0
535.0
552.0
558.0
540.0
530.0
549.0
562.0
551.0
545.0
566.0
586.0
579.0
561.0
565.0
574.0
561.0
543.0
550.0
570.0
567.0
548.0
548.0
569.0
574.0
558.0
561.0
578.0
572.0
552.0
571.0
644.0
729.0
792.0
846.0
913.0
983.0
954.0
828.0
667.0
497.0
389.0
381.0
441.0
513.0
550.0
560.0
577.0
599.0
600.0
587.0
593.0
613.0
613.0
596.0
590.0
606.0
615.0
601.0
596.0
613.0
623.0
611.0
603.0
620.0
635.0
626.0
614.0
628.0
642.0
636.0
620.0
628.0
640.0
635.0
616.0
618.0
634.0
635.0
615.0
612.0
630.0
632.0
614.0
605.0
619.0
628.0
620.0
616.0
637.0
650.0
643.0
631.0
636.0
641.0
632.0
611.0
612.0
622.0
608.0
584.0
580.0
588.0
580.0
566.0
567.0
583.0
583.0
569.0
568.0
585.0
587.0
570.0
559.0
573.0
577.0
562.0
550.0
562.0
569.0
557.0
543.0
553.0
566.0
557.0
539.0
545.0
558.0
551.0
534.0
536.0
554.0
555.0
540.0
540.0
558.0
561.0
547.0
547.0
571.0
590.0
582.0
571.0
578.0
583.0
569.0
562.0
577.0
588.0
579.0
567.0
576.0
588.0
580.0
562.0
560.0
566.0
559.0
560.0
608.0
700.0
777.0
826.0
870.0
936.0
951.0
842.0
677.0
516.0
407.0
382.0
410.0
475.0
528.0
545.0
547.0
567.0
581.0
567.0
548.0
560.0
579.0
578.0
564.0
566.0
583.0
584.0
561.0
560.0
584.0
591.0
579.0
580.0
606.0
618.0
606.0
599.0
609.0
612.0
599.0
590.0
606.0
620.0
609.0
594.0
602.0
615.0
606.0
588.0
592.0
608.0
605.0
586.0
588.0
612.0
618.0
607.0
614.0
639.0
648.0
639.0
633.0
644.0
648.0
632.0
615.0
618.0
618.0
598.0
582.0
587.0
597.0
584.0
564.0
572.0
590.0
586.0
567.0
567.0
581.0
580.0
565.0
560.0
576.0
578.0
563.0
561.0
574.0
577.0
560.0
551.0
563.0
570.0
556.0
545.0
558.0
566.0
551.0
537.0
551.0
570.0
565.0
551.0
555.0
573.0
572.0
561.0
568.0
588.0
592.0
575.0
563.0
571.0
572.0
555.0
545.0
562.0
572.0
556.0
543.0
554.0
566.0
552.0
531.0
528.0
535.0
544.0
580.0
659.0
751.0
808.0
838.0
887.0
903.0
807.0
636.0
462.0
377.0
372.0
397.0
442.0
502.0
539.0
544.0
546.0
567.0
581.0
564.0
553.0
570.0
587.0
581.0
566.0
577.0
593.0
590.0
578.0
584.0
601.0
603.0
590.0
595.0
616.0
618.0
603.0
604.0
623.0
629.0
616.0
605.0
616.0
618.0
604.0
594.0
605.0
618.0
604.0
589.0
599.0
616.0
609.0
593.0
603.0
621.0
620.0
610.0
623.0
647.0
653.0
641.0
639.0
653.0
650.0
630.0
619.0
631.0
633.0
613.0
598.0
606.0
609.0
598.0
589.0
603.0
614.0
603.0
588.0
596.0
612.0
606.0
592.0
596.0
611.0
605.0
587.0
588.0
604.0
603.0
586.0
581.0
598.0
596.0
577.0
568.0
582.0
590.0
576.0
566.0
582.0
594.0
585.0
573.0
585.0
601.0
597.0
586.0
593.0
608.0
601.0
580.0
579.0
593.0
585.0
557.0
551.0
565.0
568.0
555.0
552.0
573.0
579.0
556.0
539.0
553.0
588.0
633.0
698.0
791.0
861.0
892.0
908.0
883.0
776.0
617.0
453.0
387.0
415.0
460.0
498.0
539.0
584.0
603.0
592.0
589.0
604.0
611.0
598.0
592.0
605.0
614.0
600.0
590.0
608.0
624.0
615.0
600.0
613.0
632.0
624.0
609.0
615.0
630.0
624.0
607.0
604.0
616.0
612.0
596.0
591.0
603.0
601.0
583.0
576.0
588.0
591.0
574.0
564.0
578.0
584.0
566.0
557.0
573.0
589.0
580.0
568.0
577.0
593.0
582.0
558.0
554.0
567.0
562.0
538.0
532.0
540.0
533.0
511.0
506.0
523.0
528.0
510.0
495.0
502.0
505.0
491.0
481.0
496.0
511.0
499.0
483.0
493.0
506.0
492.0
474.0
481.0
494.0
486.0
467.0
468.0
478.0
468.0
448.0
450.0
470.0
473.0
457.0
452.0
470.0
478.0
466.0
460.0
480.0
498.0
489.0
479.0
490.0
498.0
480.0
459.0
465.0
478.0
470.0
454.0
457.0
472.0
466.0
448.0
446.0
462.0
456.0
427.0
423.0
470.0
534.0
592.0
653.0
719.0
770.0
790.0
741.0
634.0
492.0
339.0
257.0
274.0
330.0
365.0
382.0
405.0
432.0
431.0
419.0
427.0
447.0
450.0
439.0
442.0
460.0
462.0
448.0
447.0
469.0
478.0
460.0
449.0
466.0
478.0
464.0
451.0
463.0
479.0
471.0
456.0
462.0
476.0
470.0
455.0
460.0
476.0
472.0
454.0
456.0
476.0
480.0
461.0
458.0
477.0
480.0
468.0
464.0
485.0
498.0
486.0
480.0
496.0
506.0
484.0
458.0
461.0
471.0
458.0
440.0
442.0
452.0
439.0
416.0
416.0
426.0
418.0
401.0
406.0
435.0
442.0
425.0
417.0
433.0
440.0
425.0
416.0
431.0
440.0
422.0
406.0
420.0
432.0
418.0
397.0
404.0
421.0
411.0
392.0
399.0
421.0
419.0
402.0
406.0
430.0
432.0
416.0
415.0
437.0
443.0
425.0
416.0
425.0
430.0
417.0
408.0
422.0
433.0
417.0
399.0
412.0
428.0
420.0
402.0
408.0
415.0
405.0
405.0
458.0
551.0
621.0
658.0
694.0
761.0
774.0
664.0
518.0
383.0
283.0
240.0
260.0
327.0
380.0
393.0
398.0
420.0
439.0
430.0
416.0
430.0
450.0
444.0
425.0
429.0
452.0
453.0
433.0
428.0
448.0
451.0
442.0
446.0
470.0
473.0
450.0
442.0
461.0
466.0
446.0
440.0
458.0
472.0
460.0
447.0
458.0
474.0
466.0
448.0
451.0
462.0
451.0
431.0
440.0
467.0
475.0
468.0
476.0
503.0
511.0
492.0
488.0
505.0
508.0
488.0
466.0
477.0
480.0
460.0
447.0
461.0
473.0
466.0
456.0
472.0
492.0
488.0
474.0
478.0
501.0
510.0
497.0
504.0
522.0
526.0
516.0
516.0
535.0
536.0
526.0
521.0
534.0
547.0
534.0
524.0
534.0
546.0
533.0
525.0
547.0
568.0
563.0
548.0
556.0
575.0
575.0
557.0
573.0
604.0
604.0
580.0
578.0
591.0
589.0
568.0
564.0
587.0
596.0
575.0
563.0
581.0
591.0
575.0
562.0
567.0
571.0
573.0
606.0
688.0
788.0
851.0
878.0
912.0
900.0
773.0
595.0
440.0
372.0
372.0
400.0
455.0
522.0
555.0
554.0
556.0
580.0
594.0
579.0
569.0
587.0
605.0
600.0
589.0
610.0
629.0
622.0
607.0
615.0
630.0
620.0
604.0
612.0
634.0
633.0
618.0
624.0
640.0
642.0
628.0
622.0
641.0
650.0
634.0
621.0
634.0
639.0
623.0
611.0
625.0
641.0
638.0
629.0
639.0
659.0
654.0
644.0
659.0
681.0
673.0
647.0
641.0
652.0
646.0
624.0
612.0
622.0
621.0
591.0
572.0
588.0
599.0
583.0
573.0
588.0
599.0
587.0
578.0
594.0
611.0
603.0
586.0
594.0
616.0
613.0
601.0
607.0
624.0
622.0
602.0
598.0
614.0
614.0
592.0
586.0
602.0
608.0
587.0
578.0
599.0
611.0
595.0
581.0
593.0
610.0
599.0
584.0
596.0
608.0
588.0
564.0
570.0
588.0
580.0
560.0
563.0
584.0
583.0
564.0
561.0
576.0
573.0
540.0
525.0
564.0
630.0
699.0
777.0
862.0
913.0
931.0
881.0
749.0
569.0
366.0
259.0
285.0
367.0
428.0
458.0
494.0
532.0
546.0
540.0
544.0
564.0
571.0
555.0
555.0
578.0
585.0
564.0
550.0
567.0
577.0
562.0
553.0
569.0
582.0
570.0
554.0
568.0
585.0
577.0
562.0
569.0
582.0
574.0
554.0
555.0
572.0
571.0
549.0
544.0
561.0
564.0
548.0
543.0
563.0
575.0
563.0
557.0
580.0
599.0
591.0
583.0
598.0
614.0
601.0
582.0
586.0
592.0
574.0
545.0
542.0
553.0
544.0
520.0
517.0
535.0
539.0
524.0
522.0
541.0
547.0
529.0
522.0
544.0
557.0
541.0
528.0
546.0
561.0
550.0
533.0
545.0
560.0
549.0
531.0
536.0
551.0
542.0
521.0
524.0
545.0
546.0
527.0
521.0
540.0
548.0
536.0
538.0
562.0
574.0
557.0
541.0
551.0
559.0
543.0
526.0
540.0
560.0
554.0
539.0
548.0
566.0
558.0
539.0
538.0
548.0
546.0
556.0
620.0
720.0
797.0
835.0
871.0
918.0
872.0
707.0
514.0
373.0
330.0
348.0
399.0
473.0
527.0
539.0
541.0
562.0
584.0
583.0
570.0
579.0
600.0
600.0
585.0
590.0
612.0
612.0
592.0
588.0
607.0
610.0
589.0
579.0
595.0
605.0
596.0
595.0
620.0
637.0
627.0
616.0
634.0
655.0
649.0
639.0
651.0
673.0
670.0
656.0
664.0
689.0
691.0
676.0
678.0
702.0
709.0
698.0
700.0
728.0
745.0
731.0
720.0
731.0
737.0
719.0
702.0
709.0
715.0
697.0
677.0
685.0
699.0
690.0
674.0
683.0
704.0
701.0
684.0
687.0
710.0
714.0
698.0
695.0
712.0
715.0
700.0
695.0
715.0
723.0
704.0
692.0
708.0
721.0
707.0
692.0
703.0
716.0
709.0
697.0
710.0
731.0
727.0
714.0
724.0
751.0
758.0
742.0
742.0
761.0
760.0
735.0
727.0
746.0
752.0
737.0
729.0
749.0
764.0
748.0
731.0
746.0
758.0
737.0
719.0
753.0
823.0
887.0
934.0
990.0
1006.0
1008.0
1006.0
970.0
838.0
658.0
531.0
516.0
574.0
625.0
639.0
653.0
686.0
700.0
680.0
664.0
677.0
690.0
674.0
658.0
669.0
681.0
665.0
644.0
648.0
665.0
656.0
637.0
636.0
650.0
647.0
632.0
629.0
646.0
649.0
630.0
615.0
626.0
628.0
610.0
598.0
611.0
617.0
595.0
577.0
584.0
591.0
570.0
546.0
550.0
560.0
546.0
526.0
535.0
558.0
560.0
550.0
553.0
566.0
556.0
525.0
507.0
510.0
500.0
467.0
449.0
460.0
461.0
440.0
424.0
435.0
444.0
421.0
398.0
408.0
422.0
406.0
383.0
383.0
399.0
390.0
370.0
373.0
391.0
387.0
364.0
355.0
370.0
368.0
345.0
333.0
347.0
358.0
343.0
331.0
347.0
356.0
340.0
328.0
343.0
361.0
351.0
335.0
351.0
374.0
368.0
348.0
346.0
357.0
344.0
317.0
316.0
338.0
342.0
320.0
317.0
336.0
340.0
317.0
298.0
302.0
305.0
308.0
350.0
439.0
521.0
556.0
593.0
668.0
693.0
586.0
422.0
278.0
195.0
168.0
174.0
218.0
279.0
304.0
297.0
301.0
324.0
329.0
308.0
300.0
322.0
334.0
319.0
308.0
325.0
339.0
330.0
324.0
344.0
361.0
348.0
330.0
344.0
369.0
366.0
348.0
354.0
375.0
368.0
343.0
348.0
376.0
378.0
358.0
353.0
369.0
368.0
344.0
333.0
356.0
370.0
351.0
336.0
360.0
384.0
376.0
363.0
383.0
404.0
392.0
375.0
383.0
397.0
390.0
374.0
380.0
398.0
389.0
361.0
358.0
383.0
389.0
372.0
364.0
384.0
392.0
372.0
356.0
371.0
384.0
372.0
359.0
369.0
376.0
365.0
350.0
363.0
378.0
362.0
337.0
341.0
368.0
363.0
337.0
334.0
355.0
352.0
323.0
322.0
348.0
356.0
335.0
336.0
374.0
397.0
389.0
384.0
408.0
430.0
416.0
391.0
399.0
417.0
416.0
404.0
418.0
439.0
436.0
417.0
420.0
440.0
436.0
414.0
405.0
417.0
427.0
438.0
495.0
586.0
654.0
688.0
730.0
779.0
727.0
576.0
404.0
287.0
255.0
271.0
311.0
371.0
419.0
431.0
427.0
440.0
464.0
464.0
448.0
456.0
484.0
489.0
472.0
470.0
492.0
494.0
472.0
464.0
489.0
502.0
484.0
473.0
496.0
512.0
499.0
485.0
502.0
521.0
507.0
486.0
493.0
508.0
494.0
464.0
460.0
479.0
473.0
444.0
441.0
460.0
457.0
430.0
422.0
445.0
458.0
442.0
437.0
470.0
495.0
483.0
468.0
484.0
496.0
477.0
452.0
460.0
475.0
458.0
437.0
442.0
463.0
456.0
432.0
433.0
456.0
460.0
443.0
442.0
464.0
464.0
441.0
426.0
448.0
464.0
445.0
428.0
448.0
464.0
446.0
425.0
440.0
457.0
442.0
420.0
429.0
444.0
431.0
409.0
411.0
430.0
430.0
412.0
415.0
443.0
448.0
430.0
430.0
459.0
472.0
451.0
435.0
451.0
457.0
436.0
422.0
437.0
448.0
430.0
405.0
420.0
444.0
436.0
416.0
422.0
433.0
417.0
407.0
450.0
541.0
619.0
663.0
706.0
765.0
778.0
668.0
507.0
364.0
245.0
188.0
210.0
293.0
357.0
378.0
385.0
413.0
436.0
424.0
409.0
420.0
442.0
435.0
414.0
418.0
436.0
432.0
409.0
408.0
429.0
430.0
409.0
404.0
430.0
441.0
427.0
422.0
444.0
458.0
440.0
426.0
444.0
457.0
439.0
419.0
430.0
446.0
432.0
407.0
412.0
430.0
420.0
396.0
398.0
423.0
427.0
411.0
418.0
447.0
458.0
442.0
435.0
451.0
451.0
425.0
405.0
413.0
416.0
392.0
376.0
385.0
396.0
386.0
377.0
392.0
415.0
407.0
389.0
397.0
422.0
422.0
404.0
406.0
423.0
418.0
394.0
393.0
414.0
420.0
399.0
390.0
409.0
418.0
402.0
391.0
408.0
423.0
411.0
394.0
407.0
426.0
420.0
402.0
407.0
427.0
422.0
406.0
411.0
436.0
438.0
421.0
423.0
450.0
459.0
441.0
435.0
449.0
450.0
428.0
416.0
436.0
448.0
434.0
418.0
431.0
448.0
435.0
422.0
434.0
451.0
435.0
414.0
445.0
532.0
622.0
691.0
761.0
832.0
878.0
846.0
718.0
542.0
340.0
195.0
178.0
259.0
344.0
380.0
400.0
440.0
467.0
459.0
445.0
459.0
480.0
472.0
454.0
463.0
483.0
478.0
459.0
462.0
485.0
484.0
465.0
463.0
487.0
493.0
473.0
468.0
491.0
502.0
486.0
474.0
492.0
506.0
488.0
467.0
472.0
482.0
467.0
447.0
454.0
466.0
452.0
427.0
427.0
443.0
444.0
429.0
435.0
460.0
469.0
455.0
454.0
477.0
481.0
456.0
439.0
449.0
451.0
426.0
403.0
416.0
430.0
414.0
394.0
401.0
416.0
405.0
386.0
394.0
414.0
405.0
383.0
387.0
408.0
405.0
383.0
382.0
404.0
407.0
386.0
380.0
398.0
409.0
391.0
379.0
395.0
409.0
394.0
378.0
387.0
399.0
383.0
366.0
376.0
394.0
385.0
368.0
376.0
397.0
396.0
380.0
385.0
412.0
420.0
406.0
403.0
420.0
423.0
401.0
390.0
410.0
420.0
403.0
392.0
410.0
424.0
410.0
393.0
409.0
426.0
408.0
383.0
398.0
460.0
532.0
602.0
681.0
758.0
804.0
811.0
743.0
605.0
408.0
223.0
162.0
219.0
294.0
334.0
367.0
409.0
440.0
434.0
425.0
441.0
458.0
447.0
431.0
446.0
471.0
469.0
452.0
459.0
482.0
481.0
465.0
472.0
498.0
503.0
486.0
485.0
510.0
521.0
506.0
500.0
522.0
531.0
514.0
502.0
520.0
535.0
518.0
498.0
507.0
524.0
514.0
496.0
507.0
530.0
526.0
511.0
519.0
548.0
555.0
543.0
548.0
574.0
578.0
558.0
545.0
557.0
558.0
534.0
516.0
527.0
533.0
513.0
494.0
507.0
525.0
517.0
503.0
515.0
535.0
528.0
508.0
512.0
533.0
531.0
512.0
511.0
532.0
535.0
517.0
512.0
533.0
539.0
519.0
509.0
528.0
539.0
522.0
509.0
528.0
544.0
532.0
517.0
530.0
546.0
537.0
519.0
527.0
548.0
541.0
523.0
529.0
552.0
555.0
537.0
540.0
567.0
578.0
564.0
560.0
579.0
581.0
559.0
546.0
565.0
578.0
566.0
555.0
570.0
586.0
576.0
560.0
573.0
591.0
577.0
547.0
557.0
612.0
681.0
754.0
840.0
924.0
972.0
984.0
928.0
812.0
633.0
435.0
348.0
386.0
458.0
500.0
529.0
572.0
602.0
598.0
587.0
603.0
624.0
618.0
603.0
611.0
628.0
622.0
608.0
616.0
639.0
638.0
619.0
619.0
641.0
647.0
631.0
625.0
645.0
654.0
639.0
630.0
647.0
658.0
640.0
623.0
632.0
644.0
635.0
615.0
621.0
638.0
628.0
606.0
609.0
625.0
620.0
603.0
606.0
632.0
639.0
634.0
639.0
667.0
678.0
660.0
647.0
661.0
665.0
642.0
623.0
632.0
639.0
623.0
604.0
614.0
630.0
619.0
602.0
607.0
624.0
617.0
597.0
600.0
621.0
622.0
601.0
597.0
615.0
616.0
597.0
590.0
610.0
617.0
598.0
588.0
606.0
618.0
600.0
585.0
601.0
619.0
608.0
589.0
595.0
612.0
603.0
582.0
584.0
602.0
599.0
577.0
578.0
602.0
607.0
589.0
587.0
610.0
619.0
604.0
600.0
624.0
635.0
620.0
606.0
622.0
636.0
622.0
605.0
616.0
631.0
620.0
600.0
608.0
627.0
622.0
603.0
604.0
619.0
611.0
607.0
658.0
766.0
862.0
920.0
970.0
1005.0
1005.0
950.0
784.0
605.0
465.0
409.0
429.0
498.0
562.0
584.0
588.0
608.0
632.0
629.0
616.0
628.0
650.0
650.0
635.0
636.0
655.0
658.0
640.0
639.0
659.0
666.0
648.0
641.0
662.0
674.0
660.0
650.0
669.0
683.0
674.0
662.0
677.0
695.0
682.0
661.0
665.0
680.0
669.0
646.0
645.0
661.0
655.0
633.0
626.0
641.0
643.0
625.0
620.0
643.0
656.0
640.0
632.0
646.0
654.0
636.0
615.0
621.0
629.0
609.0
588.0
595.0
608.0
594.0
570.0
572.0
589.0
583.0
561.0
560.0
578.0
576.0
554.0
548.0
566.0
569.0
547.0
535.0
552.0
559.0
542.0
531.0
547.0
560.0
544.0
524.0
532.0
545.0
530.0
508.0
514.0
531.0
524.0
505.0
510.0
531.0
532.0
513.0
512.0
532.0
532.0
509.0
500.0
519.0
527.0
511.0
503.0
526.0
542.0
531.0
525.0
547.0
566.0
552.0
530.0
534.0
545.0
533.0
513.0
521.0
543.0
538.0
519.0
520.0
540.0
539.0
520.0
516.0
531.0
528.0
508.0
526.0
608.0
706.0
774.0
829.0
890.0
938.0
904.0
774.0
609.0
434.0
307.0
274.0
330.0
404.0
442.0
450.0
465.0
493.0
493.0
470.0
467.0
488.0
491.0
469.0
463.0
483.0
491.0
473.0
463.0
478.0
488.0
472.0
458.0
472.0
487.0
475.0
459.0
472.0
492.0
485.0
467.0
474.0
495.0
489.0
465.0
461.0
477.0
474.0
450.0
442.0
456.0
453.0
429.0
421.0
441.0
452.0
437.0
428.0
451.0
474.0
466.0
455.0
468.0
484.0
468.0
446.0
447.0
457.0
441.0
412.0
408.0
423.0
418.0
394.0
390.0
410.0
412.0
393.0
388.0
405.0
409.0
389.0
380.0
396.0
410.0
394.0
383.0
395.0
408.0
395.0
377.0
383.0
399.0
392.0
375.0
380.0
393.0
387.0
371.0
372.0
391.0
393.0
378.0
373.0
391.0
398.0
382.0
370.0
385.0
396.0
382.0
368.0
383.0
396.0
383.0
369.0
383.0
399.0
391.0
382.0
396.0
424.0
427.0
416.0
431.0
460.0
464.0
447.0
446.0
467.0
472.0
454.0
452.0
479.0
491.0
474.0
468.0
488.0
506.0
494.0
482.0
495.0
507.0
504.0
526.0
618.0
735.0
821.0
874.0
925.0
987.0
957.0
810.0
618.0
439.0
340.0
327.0
382.0
460.0
509.0
520.0
532.0
562.0
576.0
561.0
551.0
572.0
591.0
578.0
565.0
579.0
602.0
597.0
584.0
598.0
621.0
615.0
598.0
606.0
631.0
636.0
621.0
623.0
650.0
657.0
640.0
639.0
657.0
664.0
646.0
638.0
652.0
660.0
640.0
626.0
645.0
661.0
647.0
631.0
639.0
656.0
649.0
638.0
650.0
676.0
677.0
660.0
666.0
688.0
683.0
657.0
644.0
659.0
659.0
637.0
625.0
639.0
643.0
625.0
610.0
625.0
636.0
620.0
604.0
616.0
632.0
622.0
605.0
612.0
630.0
622.0
598.0
600.0
618.0
610.0
589.0
590.0
615.0
620.0
601.0
595.0
611.0
615.0
592.0
581.0
600.0
611.0
596.0
584.0
602.0
618.0
603.0
582.0
587.0
604.0
592.0
571.0
574.0
588.0
581.0
565.0
570.0
594.0
596.0
578.0
581.0
608.0
617.0
599.0
588.0
603.0
610.0
595.0
584.0
604.0
623.0
612.0
597.0
611.0
627.0
614.0
596.0
606.0
623.0
607.0
588.0
628.0
721.0
810.0
869.0
929.0
998.0
1007.0
1004.0
945.0
792.0
598.0
446.0
426.0
495.0
562.0
586.0
594.0
619.0
638.0
625.0
613.0
632.0
650.0
642.0
625.0
635.0
658.0
660.0
643.0
646.0
668.0
666.0
644.0
643.0
667.0
674.0
655.0
650.0
673.0
686.0
671.0
660.0
676.0
689.0
672.0
650.0
665.0
686.0
679.0
658.0
665.0
680.0
668.0
643.0
644.0
662.0
657.0
638.0
635.0
655.0
666.0
659.0
665.0
690.0
694.0
669.0
653.0
669.0
676.0
654.0
634.0
644.0
658.0
640.0
624.0
637.0
653.0
640.0
622.0
629.0
646.0
639.0
615.0
613.0
632.0
632.0
609.0
607.0
626.0
627.0
607.0
600.0
616.0
620.0
600.0
591.0
610.0
622.0
605.0
588.0
600.0
612.0
598.0
581.0
593.0
614.0
606.0
584.0
588.0
609.0
602.0
579.0
577.0
597.0
597.0
578.0
573.0
593.0
598.0
577.0
567.0
594.0
616.0
606.0
596.0
614.0
623.0
602.0
583.0
588.0
598.0
587.0
574.0
587.0
609.0
602.0
581.0
582.0
600.0
600.0
575.0
561.0
577.0
600.0
635.0
709.0
808.0
878.0
905.0
936.0
963.0
891.0
710.0
509.0
387.0
380.0
407.0
445.0
500.0
551.0
560.0
546.0
554.0
576.0
574.0
555.0
557.0
580.0
584.0
563.0
555.0
575.0
581.0
562.0
555.0
577.0
589.0
571.0
559.0
578.0
593.0
581.0
565.0
577.0
594.0
587.0
570.0
584.0
611.0
603.0
577.0
574.0
591.0
585.0
561.0
555.0
573.0
573.0
550.0
542.0
563.0
572.0
560.0
557.0
580.0
601.0
597.0
588.0
600.0
611.0
598.0
577.0
583.0
594.0
577.0
554.0
557.0
574.0
571.0
551.0
550.0
567.0
564.0
541.0
534.0
554.0
563.0
546.0
538.0
556.0
562.0
538.0
520.0
535.0
551.0
537.0
520.0
526.0
539.0
527.0
506.0
514.0
537.0
533.0
510.0
513.0
536.0
536.0
515.0
512.0
530.0
531.0
510.0
503.0
524.0
531.0
515.0
503.0
520.0
536.0
526.0
515.0
532.0
555.0
549.0
536.0
550.0
567.0
554.0
529.0
530.0
551.0
549.0
528.0
528.0
551.0
555.0
538.0
533.0
551.0
551.0
523.0
507.0
543.0
610.0
675.0
744.0
829.0
890.0
910.0
894.0
810.0
660.0
467.0
321.0
305.0
373.0
428.0
460.0
500.0
540.0
547.0
526.0
521.0
540.0
541.0
519.0
510.0
529.0
537.0
520.0
509.0
526.0
537.0
520.0
505.0
521.0
537.0
525.0
515.0
531.0
552.0
547.0
531.0
538.0
558.0
554.0
532.0
530.0
548.0
546.0
521.0
514.0
532.0
535.0
511.0
497.0
515.0
524.0
508.0
502.0
528.0
553.0
548.0
539.0
557.0
576.0
564.0
542.0
544.0
558.0
545.0
518.0
513.0
528.0
523.0
496.0
491.0
510.0
513.0
493.0
487.0
505.0
512.0
490.0
476.0
495.0
509.0
492.0
474.0
488.0
504.0
490.0
473.0
485.0
503.0
493.0
474.0
481.0
502.0
497.0
472.0
468.0
487.0
484.0
460.0
455.0
473.0
476.0
454.0
443.0
462.0
473.0
456.0
443.0
462.0
478.0
468.0
453.0
468.0
488.0
480.0
466.0
481.0
505.0
500.0
478.0
476.0
488.0
479.0
455.0
452.0
473.0
476.0
458.0
452.0
470.0
475.0
453.0
438.0
452.0
451.0
426.0
428.0
502.0
608.0
682.0
734.0
790.0
843.0
819.0
688.0
511.0
336.0
218.0
190.0
248.0
341.0
395.0
406.0
421.0
450.0
460.0
443.0
435.0
455.0
466.0
448.0
437.0
456.0
471.0
454.0
441.0
455.0
470.0
455.0
434.0
441.0
462.0
461.0
444.0
448.0
470.0
465.0
447.0
450.0
472.0
480.0
461.0
455.0
474.0
482.0
459.0
448.0
462.0
469.0
450.0
437.0
457.0
478.0
471.0
461.0
477.0
496.0
489.0
471.0
476.0
495.0
486.0
458.0
449.0
458.0
448.0
419.0
411.0
429.0
431.0
409.0
397.0
409.0
418.0
404.0
393.0
411.0
424.0
409.0
392.0
403.0
420.0
408.0
388.0
395.0
413.0
407.0
388.0
391.0
416.0
418.0
399.0
394.0
415.0
420.0
401.0
394.0
410.0
415.0
394.0
383.0
400.0
410.0
393.0
381.0
394.0
408.0
395.0
382.0
392.0
411.0
403.0
390.0
405.0
437.0
442.0
429.0
434.0
453.0
449.0
428.0
421.0
439.0
447.0
433.0
430.0
452.0
464.0
450.0
438.0
456.0
468.0
445.0
426.0
458.0
532.0
612.0
688.0
778.0
854.0
897.0
895.0
815.0
662.0
451.0
264.0
214.0
274.0
346.0
388.0
430.0
484.0
510.0
502.0
500.0
526.0
544.0
531.0
519.0
538.0
557.0
546.0
530.0
544.0
562.0
555.0
538.0
549.0
574.0
576.0
557.0
560.0
587.0
597.0
585.0
588.0
613.0
620.0
602.0
593.0
609.0
618.0
602.0
589.0
606.0
620.0
607.0
594.0
612.0
636.0
630.0
618.0
634.0
659.0
658.0
646.0
660.0
686.0
685.0
661.0
654.0
668.0
665.0
639.0
628.0
641.0
643.0
619.0
605.0
625.0
639.0
624.0
611.0
627.0
642.0
632.0
615.0
629.0
653.0
650.0
638.0
644.0
664.0
661.0
640.0
641.0
662.0
662.0
641.0
638.0
656.0
663.0
648.0
643.0
666.0
675.0
655.0
639.0
653.0
666.0
650.0
636.0
650.0
670.0
660.0
641.0
652.0
675.0
677.0
667.0
677.0
700.0
698.0
670.0
662.0
681.0
683.0
663.0
656.0
673.0
678.0
663.0
653.0
670.0
680.0
661.0
641.0
648.0
670.0
695.0
750.0
841.0
926.0
973.0
1001.0
1007.0
1006.0
953.0
763.0
566.0
491.0
505.0
536.0
576.0
626.0
651.0
644.0
639.0
655.0
662.0
645.0
638.0
652.0
664.0
654.0
641.0
652.0
666.0
656.0
642.0
651.0
668.0
662.0
642.0
642.0
657.0
661.0
651.0
657.0
679.0
680.0
661.0
653.0
669.0
673.0
653.0
642.0
656.0
664.0
646.0
632.0
638.0
646.0
638.0
626.0
636.0
654.0
654.0
646.0
660.0
681.0
678.0
659.0
654.0
665.0
660.0
639.0
632.0
643.0
643.0
624.0
615.0
630.0
636.0
621.0
611.0
624.0
636.0
622.0
607.0
621.0
640.0
636.0
622.0
630.0
641.0
636.0
617.0
617.0
632.0
630.0
614.0
613.0
631.0
631.0
612.0
603.0
616.0
617.0
599.0
591.0
604.0
611.0
598.0
587.0
599.0
611.0
597.0
580.0
585.0
594.0
582.0
566.0
574.0
592.0
589.0
564.0
555.0
563.0
558.0
538.0
532.0
549.0
553.0
534.0
525.0
541.0
548.0
531.0
515.0
520.0
524.0
531.0
576.0
666.0
754.0
808.0
848.0
918.0
969.0
900.0
740.0
559.0
424.0
381.0
389.0
436.0
496.0
528.0
534.0
543.0
562.0
566.0
548.0
542.0
561.0
571.0
553.0
540.0
551.0
563.0
558.0
548.0
559.0
574.0
565.0
551.0
559.0
579.0
576.0
564.0
573.0
593.0
591.0
572.0
565.0
581.0
590.0
575.0
564.0
573.0
573.0
554.0
542.0
555.0
562.0
546.0
532.0
545.0
563.0
559.0
548.0
561.0
579.0
574.0
555.0
557.0
570.0
562.0
540.0
534.0
547.0
542.0
522.0
516.0
530.0
530.0
513.0
500.0
516.0
526.0
512.0
499.0
512.0
518.0
503.0
487.0
500.0
515.0
502.0
480.0
483.0
500.0
496.0
479.0
481.0
498.0
496.0
479.0
474.0
494.0
500.0
483.0
473.0
491.0
497.0
480.0
468.0
483.0
497.0
487.0
477.0
490.0
508.0
503.0
495.0
507.0
525.0
519.0
498.0
495.0
504.0
493.0
472.0
471.0
489.0
496.0
485.0
486.0
508.0
514.0
498.0
488.0
497.0
496.0
485.0
506.0
584.0
669.0
723.0
764.0
829.0
896.0
870.0
739.0
578.0
420.0
329.0
319.0
371.0
438.0
476.0
484.0
498.0
530.0
545.0
536.0
536.0
560.0
570.0
557.0
554.0
578.0
605.0
609.0
606.0
625.0
639.0
629.0
625.0
645.0
674.0
671.0
654.0
654.0
667.0
667.0
658.0
667.0
687.0
680.0
654.0
643.0
657.0
655.0
628.0
610.0
620.0
622.0
599.0
583.0
601.0
618.0
608.0
596.0
610.0
630.0
624.0
597.0
592.0
594.0
572.0
537.0
529.0
541.0
530.0
492.0
475.0
486.0
481.0
459.0
451.0
471.0
475.0
447.0
424.0
431.0
439.0
418.0
405.0
425.0
443.0
430.0
415.0
430.0
447.0
435.0
415.0
428.0
455.0
452.0
436.0
443.0
466.0
467.0
447.0
443.0
461.0
465.0
444.0
437.0
460.0
472.0
458.0
448.0
468.0
485.0
477.0
464.0
483.0
505.0
501.0
487.0
494.0
506.0
495.0
474.0
479.0
501.0
500.0
479.0
485.0
512.0
519.0
501.0
499.0
519.0
521.0
498.0
498.0
561.0
649.0
720.0
785.0
859.0
928.0
941.0
853.0
719.0
568.0
420.0
368.0
406.0
480.0
519.0
525.0
540.0
564.0
566.0
548.0
546.0
566.0
570.0
551.0
546.0
570.0
582.0
568.0
558.0
579.0
592.0
578.0
570.0
594.0
621.0
618.0
606.0
615.0
630.0
626.0
615.0
632.0
655.0
650.0
627.0
623.0
638.0
639.0
623.0
617.0
633.0
635.0
612.0
602.0
623.0
638.0
627.0
617.0
636.0
654.0
649.0
639.0
652.0
670.0
655.0
625.0
620.0
630.0
617.0
592.0
592.0
613.0
612.0
590.0
586.0
609.0
612.0
591.0
579.0
598.0
608.0
592.0
579.0
592.0
598.0
572.0
550.0
564.0
582.0
570.0
547.0
552.0
567.0
556.0
534.0
538.0
559.0
559.0
538.0
540.0
563.0
565.0
545.0
542.0
572.0
586.0
570.0
560.0
582.0
596.0
581.0
572.0
592.0
616.0
606.0
588.0
594.0
603.0
589.0
568.0
573.0
590.0
583.0
564.0
569.0
590.0
588.0
562.0
555.0
568.0
565.0
535.0
533.0
588.0
666.0
732.0
793.0
860.0
911.0
918.0
846.0
728.0
590.0
444.0
380.0
410.0
477.0
515.0
530.0
558.0
589.0
591.0
571.0
572.0
591.0
594.0
578.0
574.0
593.0
595.0
571.0
555.0
572.0
586.0
571.0
559.0
575.0
588.0
571.0
553.0
567.0
587.0
580.0
562.0
571.0
591.0
586.0
563.0
566.0
586.0
587.0
568.0
566.0
585.0
588.0
568.0
560.0
579.0
588.0
575.0
569.0
589.0
602.0
584.0
567.0
581.0
594.0
576.0
550.0
549.0
557.0
540.0
510.0
505.0
517.0
506.0
483.0
479.0
500.0
504.0
486.0
482.0
505.0
514.0
494.0
483.0
499.0
509.0
489.0
472.0
489.0
508.0
495.0
475.0
481.0
494.0
483.0
464.0
470.0
487.0
482.0
463.0
464.0
481.0
479.0
460.0
456.0
476.0
479.0
462.0
459.0
485.0
496.0
478.0
469.0
489.0
503.0
487.0
468.0
475.0
484.0
471.0
454.0
464.0
485.0
477.0
457.0
460.0
479.0
474.0
453.0
450.0
466.0
459.0
446.0
476.0
564.0
650.0
706.0
746.0
801.0
830.0
747.0
596.0
444.0
327.0
278.0
296.0
365.0
431.0
457.0
458.0
480.0
509.0
512.0
498.0
503.0
522.0
522.0
504.0
505.0
527.0
530.0
510.0
506.0
530.0
544.0
529.0
521.0
543.0
563.0
553.0
540.0
557.0
573.0
560.0
540.0
548.0
564.0
550.0
529.0
536.0
554.0
550.0
531.0
532.0
556.0
560.0
542.0
538.0
559.0
569.0
555.0
550.0
573.0
589.0
576.0
561.0
575.0
582.0
561.0
534.0
537.0
546.0
528.0
504.0
506.0
520.0
513.0
496.0
506.0
532.0
534.0
513.0
509.0
528.0
528.0
504.0
493.0
511.0
518.0
495.0
481.0
496.0
506.0
489.0
474.0
489.0
505.0
496.0
480.0
490.0
507.0
496.0
473.0
476.0
495.0
490.0
469.0
467.0
486.0
486.0
464.0
458.0
479.0
491.0
478.0
472.0
488.0
487.0
460.0
446.0
464.0
477.0
463.0
444.0
451.0
459.0
448.0
437.0
449.0
469.0
456.0
425.0
430.0
479.0
545.0
614.0
697.0
784.0
832.0
842.0
796.0
672.0
482.0
267.0
156.0
184.0
266.0
324.0
368.0
420.0
461.0
462.0
450.0
462.0
480.0
472.0
455.0
463.0
486.0
483.0
464.0
469.0
494.0
501.0
486.0
487.0
515.0
522.0
502.0
498.0
524.0
543.0
533.0
526.0
544.0
559.0
547.0
533.0
545.0
561.0
549.0
528.0
530.0
540.0
527.0
504.0
504.0
524.0
525.0
510.0
515.0
542.0
554.0
544.0
544.0
567.0
573.0
551.0
535.0
544.0
548.0
526.0
506.0
518.0
531.0
515.0
496.0
505.0
518.0
504.0
485.0
491.0
512.0
508.0
487.0
486.0
506.0
508.0
491.0
489.0
509.0
512.0
490.0
480.0
499.0
509.0
490.0
475.0
496.0
513.0
496.0
477.0
488.0
503.0
492.0
477.0
492.0
512.0
505.0
490.0
500.0
529.0
533.0
513.0
512.0
532.0
529.0
503.0
492.0
511.0
517.0
500.0
491.0
508.0
520.0
506.0
494.0
515.0
529.0
510.0
483.0
500.0
554.0
618.0
683.0
765.0
840.0
875.0
896.0
886.0
794.0
625.0
405.0
289.0
310.0
374.0
415.0
454.0
500.0
528.0
522.0
516.0
536.0
549.0
532.0
518.0
534.0
553.0
543.0
528.0
537.0
556.0
549.0
534.0
540.0
565.0
565.0
549.0
552.0
571.0
573.0
556.0
554.0
574.0
583.0
566.0
558.0
575.0
582.0
564.0
547.0
555.0
560.0
539.0
518.0
527.0
543.0
534.0
520.0
535.0
563.0
567.0
557.0
566.0
591.0
591.0
569.0
561.0
576.0
572.0
545.0
532.0
545.0
547.0
526.0
512.0
526.0
539.0
527.0
517.0
530.0
543.0
534.0
524.0
538.0
557.0
550.0
532.0
536.0
557.0
552.0
532.0
535.0
559.0
563.0
545.0
542.0
563.0
567.0
544.0
533.0
550.0
558.0
539.0
525.0
545.0
560.0
550.0
539.0
557.0
578.0
569.0
551.0
562.0
582.0
572.0
545.0
546.0
568.0
567.0
547.0
545.0
566.0
570.0
550.0
545.0
566.0
572.0
545.0
526.0
559.0
624.0
685.0
747.0
826.0
890.0
931.0
963.0
932.0
825.0
635.0
426.0
361.0
398.0
443.0
469.0
504.0
545.0
557.0
543.0
540.0
561.0
571.0
559.0
555.0
576.0
588.0
575.0
565.0
582.0
596.0
582.0
566.0
580.0
600.0
594.0
582.0
594.0
616.0
612.0
596.0
603.0
626.0
625.0
607.0
602.0
617.0
616.0
589.0
576.0
592.0
599.0
576.0
562.0
578.0
589.0
575.0
563.0
581.0
604.0
603.0
593.0
610.0
631.0
626.0
610.0
612.0
627.0
620.0
596.0
591.0
606.0
605.0
586.0
581.0
600.0
605.0
586.0
572.0
586.0
595.0
580.0
566.0
583.0
599.0
585.0
566.0
573.0
586.0
572.0
548.0
550.0
564.0
556.0
535.0
539.0
557.0
549.0
522.0
515.0
535.0
539.0
520.0
510.0
528.0
535.0
518.0
512.0
537.0
556.0
543.0
528.0
541.0
551.0
534.0
514.0
524.0
540.0
533.0
514.0
523.0
546.0
545.0
527.0
528.0
548.0
540.0
508.0
508.0
568.0
643.0
698.0
751.0
826.0
904.0
961.0
943.0
853.0
691.0
469.0
348.0
353.0
404.0
432.0
443.0
474.0
508.0
506.0
484.0
486.0
506.0
503.0
481.0
478.0
497.0
499.0
476.0
470.0
491.0
504.0
487.0
474.0
493.0
509.0
496.0
480.0
496.0
517.0
507.0
490.0
500.0
518.0
507.0
483.0
485.0
504.0
495.0
469.0
463.0
477.0
471.0
442.0
430.0
446.0
453.0
435.0
428.0
456.0
478.0
471.0
465.0
487.0
504.0
488.0
468.0
477.0
491.0
476.0
450.0
453.0
472.0
464.0
441.0
443.0
466.0
468.0
445.0
441.0
465.0
468.0
448.0
444.0
469.0
482.0
463.0
450.0
468.0
482.0
466.0
450.0
465.0
482.0
468.0
450.0
462.0
483.0
475.0
453.0
458.0
478.0
470.0
449.0
451.0
475.0
476.0
452.0
447.0
467.0
474.0
458.0
455.0
478.0
489.0
466.0
444.0
454.0
465.0
448.0
427.0
440.0
461.0
450.0
430.0
440.0
464.0
458.0
434.0
429.0
441.0
451.0
476.0
549.0
646.0
716.0
755.0
819.0
897.0
875.0
727.0
530.0
358.0
292.0
289.0
323.0
383.0
432.0
445.0
440.0
459.0
482.0
478.0
458.0
467.0
493.0
496.0
478.0
480.0
504.0
506.0
484.0
479.0
502.0
510.0
492.0
482.0
504.0
522.0
510.0
499.0
519.0
539.0
528.0
512.0
525.0
538.0
524.0
500.0
504.0
522.0
513.0
488.0
488.0
506.0
504.0
484.0
487.0
515.0
525.0
515.0
520.0
551.0
568.0
554.0
543.0
561.0
572.0
552.0
532.0
541.0
548.0
530.0
512.0
523.0
540.0
534.0
514.0
519.0
539.0
539.0
525.0
529.0
551.0
553.0
533.0
529.0
551.0
556.0
537.0
527.0
541.0
546.0
528.0
515.0
539.0
558.0
549.0
534.0
547.0
565.0
558.0
541.0
549.0
564.0
554.0
529.0
528.0
542.0
540.0
518.0
516.0
536.0
539.0
525.0
525.0
547.0
555.0
535.0
523.0
538.0
545.0
526.0
509.0
523.0
538.0
525.0
508.0
518.0
536.0
532.0
519.0
528.0
548.0
541.0
516.0
523.0
583.0
655.0
718.0
785.0
860.0
920.0
955.0
920.0
818.0
652.0
455.0
356.0
377.0
436.0
469.0
490.0
528.0
559.0
555.0
535.0
542.0
560.0
554.0
539.0
547.0
568.0
567.0
550.0
555.0
582.0
588.0
572.0
566.0
583.0
590.0
576.0
568.0
590.0
605.0
591.0
576.0
588.0
599.0
586.0
570.0
578.0
592.0
582.0
565.0
570.0
583.0
572.0
551.0
549.0
568.0
569.0
553.0
558.0
583.0
593.0
581.0
578.0
595.0
604.0
584.0
564.0
571.0
577.0
559.0
541.0
547.0
558.0
544.0
525.0
534.0
549.0
543.0
531.0
538.0
559.0
557.0
539.0
539.0
559.0
561.0
544.0
539.0
558.0
565.0
550.0
542.0
557.0
567.0
550.0
533.0
548.0
565.0
554.0
540.0
552.0
567.0
559.0
542.0
546.0
565.0
561.0
542.0
543.0
562.0
559.0
541.0
545.0
572.0
578.0
559.0
555.0
579.0
596.0
586.0
573.0
590.0
602.0
590.0
578.0
592.0
607.0
598.0
581.0
588.0
603.0
594.0
576.0
580.0
595.0
587.0
559.0
552.0
594.0
655.0
716.0
783.0
852.0
899.0
934.0
924.0
843.0
684.0
488.0
358.0
360.0
422.0
468.0
500.0
539.0
573.0
572.0
553.0
557.0
575.0
572.0
553.0
556.0
572.0
567.0
546.0
544.0
564.0
572.0
551.0
538.0
554.0
562.0
544.0
535.0
556.0
569.0
554.0
542.0
559.0
576.0
565.0
545.0
555.0
572.0
560.0
537.0
537.0
552.0
546.0
523.0
518.0
536.0
539.0
524.0
524.0
553.0
571.0
566.0
566.0
589.0
600.0
584.0
566.0
570.0
572.0
551.0
528.0
536.0
549.0
537.0
515.0
517.0
534.0
529.0
508.0
509.0
529.0
532.0
519.0
522.0
545.0
549.0
529.0
520.0
537.0
543.0
530.0
519.0
528.0
534.0
516.0
505.0
521.0
536.0
527.0
512.0
521.0
534.0
523.0
505.0
507.0
526.0
530.0
518.0
517.0
531.0
530.0
511.0
505.0
521.0
526.0
514.0
510.0
532.0
544.0
533.0
526.0
544.0
560.0
547.0
527.0
536.0
550.0
540.0
530.0
544.0
565.0
561.0
538.0
540.0
563.0
564.0
550.0
544.0
552.0
550.0
549.0
599.0
697.0
785.0
834.0
869.0
925.0
934.0
820.0
635.0
460.0
360.0
337.0
371.0
436.0
504.0
528.0
524.0
534.0
560.0
567.0
552.0
554.0
576.0
578.0
560.0
555.0
572.0
575.0
555.0
544.0
563.0
576.0
564.0
553.0
568.0
585.0
574.0
560.0
576.0
595.0
588.0
572.0
579.0
596.0
587.0
564.0
560.0
574.0
568.0
548.0
542.0
558.0
555.0
530.0
522.0
543.0
556.0
546.0
544.0
570.0
589.0
578.0
563.0
573.0
582.0
562.0
535.0
536.0
548.0
535.0
515.0
518.0
536.0
532.0
510.0
504.0
522.0
524.0
508.0
503.0
521.0
527.0
508.0
496.0
512.0
523.0
506.0
492.0
507.0
520.0
504.0
483.0
490.0
504.0
493.0
475.0
484.0
505.0
499.0
479.0
480.0
497.0
493.0
473.0
467.0
482.0
481.0
460.0
450.0
465.0
473.0
458.0
449.0
468.0
485.0
473.0
464.0
488.0
509.0
500.0
483.0
487.0
499.0
488.0
468.0
475.0
503.0
505.0
487.0
487.0
505.0
504.0
481.0
471.0
483.0
480.0
458.0
466.0
540.0
637.0
705.0
764.0
832.0
892.0
888.0
782.0
630.0
459.0
326.0
290.0
343.0
418.0
458.0
471.0
494.0
527.0
532.0
517.0
520.0
543.0
550.0
537.0
532.0
550.0
555.0
542.0
535.0
554.0
567.0
554.0
540.0
552.0
568.0
561.0
548.0
560.0
582.0
580.0
564.0
570.0
590.0
584.0
565.0
566.0
585.0
586.0
567.0
560.0
578.0
582.0
562.0
556.0
577.0
595.0
586.0
578.0
599.0
619.0
612.0
597.0
609.0
623.0
604.0
579.0
576.0
584.0
569.0
544.0
540.0
556.0
551.0
531.0
533.0
556.0
562.0
545.0
539.0
557.0
567.0
548.0
535.0
552.0
563.0
545.0
529.0
542.0
553.0
540.0
522.0
531.0
548.0
542.0
524.0
529.0
546.0
542.0
524.0
525.0
546.0
549.0
534.0
532.0
552.0
555.0
533.0
520.0
537.0
550.0
536.0
529.0
549.0
567.0
556.0
542.0
558.0
580.0
576.0
563.0
570.0
582.0
572.0
549.0
552.0
576.0
574.0
557.0
558.0
581.0
589.0
573.0
565.0
583.0
586.0
559.0
544.0
579.0
643.0
707.0
770.0
847.0
907.0
942.0
929.0
847.0
712.0
531.0
390.0
372.0
427.0
475.0
495.0
520.0
553.0
561.0
541.0
535.0
557.0
562.0
542.0
533.0
556.0
571.0
558.0
544.0
556.0
569.0
558.0
548.0
565.0
586.0
582.0
571.0
584.0
610.0
609.0
596.0
602.0
624.0
626.0
607.0
603.0
621.0
626.0
609.0
601.0
618.0
626.0
610.0
600.0
620.0
634.0
622.0
612.0
630.0
646.0
641.0
636.0
648.0
665.0
654.0
631.0
627.0
634.0
620.0
594.0
589.0
603.0
602.0
581.0
576.0
591.0
596.0
578.0
572.0
591.0
598.0
582.0
572.0
588.0
599.0
583.0
566.0
577.0
591.0
578.0
559.0
567.0
587.0
580.0
560.0
565.0
584.0
580.0
560.0
558.0
576.0
580.0
565.0
560.0
577.0
579.0
558.0
546.0
563.0
575.0
559.0
546.0
559.0
572.0
559.0
541.0
553.0
574.0
568.0
553.0
555.0
567.0
555.0
530.0
526.0
543.0
541.0
522.0
517.0
534.0
538.0
523.0
522.0
548.0
555.0
531.0
523.0
574.0
652.0
722.0
785.0
857.0
921.0
947.0
886.0
765.0
622.0
459.0
375.0
390.0
457.0
500.0
512.0
531.0
563.0
570.0
552.0
546.0
567.0
577.0
562.0
555.0
574.0
585.0
570.0
558.0
573.0
587.0
574.0
560.0
573.0
591.0
583.0
565.0
574.0
596.0
596.0
580.0
585.0
608.0
611.0
593.0
588.0
606.0
609.0
590.0
580.0
592.0
594.0
571.0
559.0
577.0
595.0
588.0
578.0
596.0
618.0
610.0
594.0
603.0
617.0
603.0
575.0
568.0
578.0
566.0
537.0
532.0
548.0
548.0
530.0
526.0
546.0
557.0
540.0
530.0
550.0
563.0
550.0
538.0
552.0
566.0
553.0
535.0
545.0
560.0
547.0
530.0
536.0
554.0
550.0
530.0
530.0
550.0
549.0
527.0
520.0
538.0
542.0
522.0
513.0
531.0
539.0
520.0
506.0
521.0
536.0
521.0
502.0
513.0
530.0
522.0
501.0
506.0
528.0
523.0
501.0
500.0
513.0
503.0
479.0
474.0
492.0
498.0
483.0
480.0
504.0
516.0
500.0
489.0
502.0
504.0
492.0
516.0
605.0
708.0
778.0
822.0
878.0
923.0
863.0
698.0
512.0
367.0
309.0
320.0
378.0
448.0
486.0
492.0
499.0
524.0
534.0
520.0
514.0
536.0
550.0
538.0
530.0
550.0
569.0
565.0
556.0
566.0
582.0
578.0
565.0
576.0
597.0
595.0
578.0
581.0
600.0
601.0
584.0
584.0
609.0
615.0
595.0
584.0
598.0
609.0
594.0
580.0
592.0
605.0
594.0
584.0
600.0
616.0
610.0
599.0
613.0
634.0
631.0
615.0
616.0
624.0
614.0
588.0
578.0
581.0
570.0
548.0
540.0
552.0
554.0
537.0
528.0
543.0
552.0
541.0
532.0
545.0
558.0
548.0
537.0
548.0
565.0
559.0
545.0
551.0
565.0
560.0
545.0
548.0
564.0
560.0
542.0
538.0
551.0
550.0
534.0
526.0
539.0
541.0
524.0
513.0
528.0
542.0
533.0
520.0
529.0
544.0
538.0
530.0
546.0
566.0
565.0
555.0
562.0
572.0
566.0
550.0
554.0
573.0
575.0
560.0
555.0
568.0
573.0
559.0
551.0
560.0
558.0
540.0
549.0
617.0
708.0
781.0
838.0
898.0
979.0
999.0
917.0
762.0
577.0
422.0
373.0
405.0
469.0
509.0
521.0
536.0
562.0
573.0
562.0
557.0
575.0
582.0
570.0
563.0
576.0
582.0
569.0
559.0
573.0
588.0
580.0
567.0
577.0
594.0
593.0
584.0
592.0
607.0
603.0
587.0
585.0
598.0
596.0
582.0
579.0
595.0
596.0
578.0
566.0
574.0
576.0
559.0
548.0
562.0
575.0
567.0
559.0
575.0
594.0
593.0
584.0
595.0
609.0
596.0
569.0
561.0
568.0
561.0
541.0
535.0
545.0
541.0
524.0
521.0
540.0
548.0
535.0
524.0
535.0
544.0
536.0
528.0
540.0
551.0
541.0
527.0
534.0
548.0
539.0
524.0
530.0
543.0
539.0
522.0
523.0
534.0
532.0
513.0
505.0
517.0
517.0
501.0
498.0
519.0
530.0
517.0
508.0
527.0
543.0
535.0
524.0
535.0
546.0
535.0
516.0
519.0
530.0
524.0
509.0
514.0
531.0
530.0
516.0
517.0
534.0
533.0
512.0
497.0
504.0
523.0
556.0
619.0
707.0
788.0
838.0
900.0
974.0
954.0
819.0
627.0
454.0
388.0
388.0
409.0
448.0
492.0
508.0
502.0
505.0
522.0
523.0
512.0
516.0
536.0
541.0
525.0
517.0
532.0
540.0
530.0
521.0
533.0
543.0
533.0
524.0
536.0
551.0
546.0
538.0
550.0
566.0
562.0
548.0
553.0
569.0
566.0
549.0
545.0
557.0
555.0
538.0
533.0
544.0
544.0
524.0
513.0
526.0
541.0
539.0
539.0
560.0
577.0
570.0
560.0
568.0
575.0
564.0
546.0
544.0
552.0
543.0
526.0
529.0
545.0
543.0
528.0
525.0
544.0
552.0
540.0
533.0
547.0
553.0
537.0
526.0
536.0
544.0
533.0
521.0
532.0
544.0
534.0
517.0
521.0
533.0
525.0
510.0
518.0
536.0
530.0
512.0
510.0
528.0
532.0
519.0
517.0
536.0
545.0
533.0
529.0
548.0
562.0
552.0
