Timestamp,3/5/2024 9:46:09 AM
Interval,0.004
Channel name,"Input 0"
Unit,"V"
0,2.3547578371071722
0.004,2.3502049286908004
0.008,2.3492293054587208
0.012,2.3524813828989863
0.016,2.3537822138750926
0.02,2.3550830448511988
0.024,2.3544326293631457
0.028,2.3606115764996503
0.032,2.3628880307078362
0.036,2.3583351222914644
0.04,2.3515057596669067
0.044,2.3524813828989863
0.048,2.3658149004040752
0.052,2.3804492488852702
0.056,2.3840265340695623
0.06,2.3934575586463325
0.064,2.4006121290149167
0.068,2.3973600515746512
0.072,2.3928071431582794
0.076,2.3950835973664653
0.08,2.4032137909671292
0.084,2.4054902451753151
0.088,2.3999617135268636
0.092,2.3950835973664653
0.096,2.3928071431582794
0.1,2.3934575586463325
0.104,2.3869534037658013
0.108,2.3758963404688984
0.112,2.3648392771719955
0.116,2.3602863687556237
0.12,2.3612619919877034
0.124,2.362237615219783
0.128,2.3667905236361548
0.132,2.3697173933323938
0.136,2.3674409391242079
0.14,2.3654896926600486
0.144,2.3680913546122611
0.148,2.3755711327248719
0.152,2.3700426010764204
0.156,2.3489040977146942
0.16,2.316058115568012
0.164,2.2968708586704452
0.168,2.3232126859365962
0.172,2.4184985549363773
0.176,2.5843545043899212
0.18,2.7658204255567398
0.184,2.9677744345972314
0.188,3.1827367533987854
0.192,3.3573733119410463
0.196,3.3476170796202496
0.2,3.068588835245464
0.204,2.6399650286184624
0.208,2.3209362317284103
0.212,2.1690642152680084
0.216,2.1476005041622557
0.22,2.1853246024693362
0.224,2.2422359576739836
0.228,2.2919927425100468
0.232,2.3297168408171274
0.236,2.3515057596669067
0.24,2.3589855377795175
0.244,2.362237615219783
0.248,2.3684165623562876
0.252,2.373294678516686
0.256,2.3755711327248719
0.26,2.3794736256531905
0.264,2.3853273650456686
0.268,2.3928071431582794
0.272,2.3950835973664653
0.276,2.3934575586463325
0.28,2.3954088051104918
0.284,2.4045146219432354
0.288,2.4090675303596072
0.292,2.4181733471923508
0.296,2.4246775020728819
0.3,2.4263035407930147
0.304,2.4243522943288554
0.308,2.4324824879295193
0.312,2.4461412131786346
0.316,2.4500437061069533
0.32,2.4526453680591658
0.324,2.4529705758031923
0.328,2.4584991074516438
0.332,2.4728082481888123
0.336,2.488418219902087
0.34,2.4939467515505385
0.344,2.5030525683832821
0.348,2.5137844239361584
0.352,2.5222398252808489
0.356,2.5280935646733269
0.36,2.5329716808337253
0.364,2.5446791596186813
0.368,2.5606143390759826
0.372,2.5732974410930183
0.376,2.5898830360383727
0.38,2.6051678000076208
0.384,2.6155744478164706
0.388,2.6243550569051877
0.392,2.6367129511781968
0.396,2.651997715147445
0.4,2.6627295707003213
0.404,2.6627295707003213
0.408,2.6585018700279761
0.412,2.654924584843684
0.416,2.6526481306354981
0.42,2.646143975754967
0.424,2.6445179370348342
0.428,2.6458187680109404
0.432,2.6370381589222234
0.436,2.6158996555604972
0.44,2.5911838670144789
0.444,2.5671184939565137
0.448,2.5489068602910265
0.452,2.5280935646733269
0.456,2.5027273606392555
0.46,2.4858165579498746
0.464,2.4692309630045202
0.468,2.453946199035272
0.472,2.4337833189056255
0.476,2.4152464774961118
0.48,2.396709636086598
0.484,2.373294678516686
0.488,2.3479284744826145
0.492,2.3336193337454461
0.496,2.3329689182573929
0.5,2.3326437105133664
0.504,2.3310176717932336
0.508,2.3258143478888087
0.512,2.3274403866089415
0.516,2.3332941260014195
0.52,2.335895787953632
0.524,2.3342697492334992
0.528,2.330692464049207
0.532,2.3241883091686759
0.536,2.3170337388000917
0.54,2.3167085310560651
0.544,2.3238631014246494
0.548,2.3323185027693398
0.552,2.335895787953632
0.556,2.3375218266737647
0.56,2.3414243196020834
0.564,2.3423999428341631
0.568,2.3427251505781896
0.572,2.3407739041140303
0.576,2.3479284744826145
0.58,2.3554082525952253
0.584,2.3619124074757565
0.588,2.3648392771719955
0.592,2.3677661468682345
0.596,2.370367808820447
0.6,2.3693921855883673
0.604,2.3602863687556237
0.608,2.356383875827305
0.612,2.3554082525952253
0.616,2.3625628229638096
0.62,2.3641888616839424
0.624,2.3586603300354909
0.628,2.3560586680832785
0.632,2.3554082525952253
0.636,2.3550830448511988
0.64,2.3560586680832785
0.644,2.3583351222914644
0.648,2.3586603300354909
0.652,2.3531317983870395
0.656,2.3430503583222162
0.66,2.3430503583222162
0.664,2.3495545132027473
0.668,2.3550830448511988
0.672,2.353457006131066
0.676,2.3498797209467739
0.68,2.3485788899706677
0.684,2.3420747350901365
0.688,2.338822657649871
0.692,2.3420747350901365
0.696,2.3466276435065083
0.7,2.3479284744826145
0.704,2.3469528512505349
0.708,2.344676397042349
0.712,2.3482536822266411
0.716,2.3495545132027473
0.72,2.3508553441788536
0.724,2.353457006131066
0.728,2.3583351222914644
0.732,2.3648392771719955
0.736,2.3628880307078362
0.74,2.3560586680832785
0.744,2.3482536822266411
0.748,2.3502049286908004
0.752,2.3576847068034112
0.756,2.3612619919877034
0.76,2.3684165623562876
0.764,2.3745955094927922
0.768,2.3752459249808453
0.772,2.3706930165644735
0.776,2.3684165623562876
0.78,2.3658149004040752
0.784,2.3641888616839424
0.788,2.3599611610115971
0.792,2.3570342913153581
0.796,2.3606115764996503
0.8,2.3697173933323938
0.804,2.373294678516686
0.808,2.3781727946770843
0.812,2.3775223791890312
0.816,2.3755711327248719
0.82,2.3713434320525266
0.824,2.3693921855883673
0.828,2.3742703017487656
0.832,2.3768719637009781
0.836,2.3778475869330578
0.84,2.3765467559569515
0.844,2.3778475869330578
0.848,2.3863029882777482
0.852,2.3801240411412437
0.856,2.3765467559569515
0.86,2.3830509108374827
0.864,2.3957340128545184
0.868,2.4113439845677931
0.872,2.4175229317042977
0.876,2.4243522943288554
0.88,2.425327917560935
0.884,2.4217506323766429
0.888,2.4181733471923508
0.892,2.4220758401206695
0.896,2.4315068646974396
0.9,2.4376858118339442
0.904,2.4389866428100504
0.908,2.4318320724414662
0.912,2.4220758401206695
0.916,2.4171977239602711
0.92,2.4084171148715541
0.924,2.4019129599910229
0.928,2.4009373367589433
0.932,2.3993112980388105
0.936,2.3944331818784121
0.94,2.3882542347419076
0.944,2.3918315199261997
0.948,2.3999617135268636
0.952,2.4019129599910229
0.956,2.4028885832231026
0.96,2.4058154529193416
0.964,2.4045146219432354
0.968,2.3954088051104918
0.972,2.3674409391242079
0.976,2.3362209956976585
0.98,2.3297168408171274
0.984,2.3801240411412437
0.988,2.4965484135027509
0.992,2.6581766622839496
0.996,2.8376913369866088
1,3.0536292790202424
1.004,3.2757461681903806
1.008,3.4298946388589684
1.012,3.3570481041970197
1.016,3.0237101665697992
1.02,2.611671954888152
1.024,2.3293916330731008
1.028,2.2074387290631421
1.032,2.2022354051587172
1.036,2.2402847112098243
1.04,2.284512964397436
1.044,2.3206110239843838
1.048,2.3521561751549598
1.052,2.3726442630286328
1.056,2.3801240411412437
1.06,2.3869534037658013
1.064,2.3918315199261997
1.068,2.3902054812060669
1.072,2.3905306889500935
1.076,2.3918315199261997
1.08,2.3960592205985449
1.084,2.4012625445029698
1.088,2.4038642064551823
1.092,2.4061406606633682
1.096,2.4126448155438993
1.1,2.431181656953413
1.104,2.445165589946555
1.108,2.4477672518987674
1.112,2.4471168364107143
1.116,2.4454907976905815
1.12,2.4419135125062894
1.124,2.4513445370830595
1.128,2.4581738997076172
1.132,2.4633772236120421
1.136,2.465653677820228
1.14,2.4669545087963343
1.144,2.4763855333731044
1.148,2.4864669734379277
1.152,2.4939467515505385
1.156,2.4962232057587244
1.16,2.4994752831989899
1.164,2.514109631680185
1.168,2.534597719553858
1.172,2.5495572757790796
1.176,2.5645168320043012
1.18,2.5719966101169121
1.184,2.5866309585981071
1.188,2.6051678000076208
1.192,2.6158996555604972
1.196,2.6269567188574001
1.2,2.6402902363624889
1.204,2.6585018700279761
1.208,2.6715101797890384
1.212,2.6822420353419147
1.216,2.689396605710499
1.22,2.6919982676627114
1.224,2.6965511760790832
1.228,2.6985024225432426
1.232,2.6978520070551895
1.236,2.692323475406738
1.24,2.6822420353419147
1.244,2.6744370494852774
1.248,2.6653312326525338
1.252,2.6448431447788607
1.256,2.6256558878812939
1.26,2.6126475781202316
1.264,2.6022409303113818
1.268,2.5872813740861602
1.272,2.5567118461476639
1.276,2.5215894097927958
1.28,2.4952475825266447
1.284,2.4819140650215559
1.288,2.4620763926359359
1.292,2.4425639279943425
1.296,2.4259783330489881
1.3,2.4058154529193416
1.304,2.3872786115098279
1.308,2.3755711327248719
1.312,2.3736198862607125
1.316,2.3677661468682345
1.32,2.3567090835713316
1.324,2.3433755660662428
1.328,2.3404486963700037
1.332,2.344676397042349
1.336,2.3472780589945614
1.34,2.3472780589945614
1.344,2.3466276435065083
1.348,2.3440259815542959
1.352,2.335895787953632
1.356,2.3349201647215523
1.36,2.34174952734611
1.364,2.3515057596669067
1.368,2.359310745523544
1.372,2.3602863687556237
1.376,2.3531317983870395
1.38,2.3485788899706677
1.384,2.3466276435065083
1.388,2.3489040977146942
1.392,2.3567090835713316
1.396,2.3648392771719955
1.4,2.3667905236361548
1.404,2.3602863687556237
1.408,2.3518309674109332
1.412,2.3528065906430129
1.416,2.3589855377795175
1.42,2.3615871997317299
1.424,2.3602863687556237
1.428,2.3609367842436768
1.432,2.3648392771719955
1.436,2.359310745523544
1.44,2.3586603300354909
1.444,2.3619124074757565
1.448,2.3645140694279689
1.452,2.3654896926600486
1.456,2.3641888616839424
1.46,2.3576847068034112
1.464,2.3557334603392519
1.468,2.3576847068034112
1.472,2.3528065906430129
1.476,2.3479284744826145
1.48,2.3479284744826145
1.484,2.3502049286908004
1.488,2.3521561751549598
1.492,2.3528065906430129
1.496,2.3508553441788536
1.5,2.3459772280184552
1.504,2.3420747350901365
1.508,2.3397982808819506
1.512,2.3508553441788536
1.516,2.3580099145474378
1.52,2.3544326293631457
1.524,2.3524813828989863
1.528,2.3541074216191191
1.532,2.3606115764996503
1.536,2.356383875827305
1.54,2.3489040977146942
1.544,2.3472780589945614
1.548,2.3550830448511988
1.552,2.3606115764996503
1.556,2.3550830448511988
1.56,2.3515057596669067
1.564,2.3554082525952253
1.568,2.3628880307078362
1.572,2.3661401081481017
1.576,2.3641888616839424
1.58,2.362237615219783
1.584,2.3583351222914644
1.588,2.3557334603392519
1.592,2.3596359532675706
1.596,2.3645140694279689
1.6,2.3641888616839424
1.604,2.362237615219783
1.608,2.3674409391242079
1.612,2.3736198862607125
1.616,2.3775223791890312
1.62,2.3755711327248719
1.624,2.373294678516686
1.628,2.3768719637009781
1.632,2.3895550657180138
1.636,2.4015877522469964
1.64,2.413620438775979
1.644,2.4201245936565101
1.648,2.422401047864696
1.652,2.4197993859124836
1.656,2.4175229317042977
1.66,2.4149212697520852
1.664,2.4110187768237665
1.668,2.4103683613357134
1.672,2.4158968929841649
1.676,2.4152464774961118
1.68,2.4139456465200055
1.684,2.4041894141992088
1.688,2.3911811044381466
1.692,2.3814248721173499
1.696,2.3830509108374827
1.7,2.3905306889500935
1.704,2.39085589669412
1.708,2.3889046502299607
1.712,2.39085589669412
1.716,2.3882542347419076
1.72,2.3863029882777482
1.724,2.3843517418135889
1.728,2.3882542347419076
1.732,2.3872786115098279
1.736,2.376221548212925
1.74,2.3469528512505349
1.744,2.3284160098410212
1.748,2.3554082525952253
1.752,2.4523201603151392
1.756,2.6230542259290814
1.76,2.8162276258808561
1.764,3.0380193073069677
1.768,3.2718436752620619
1.772,3.4604641667974647
1.776,3.4442037795961369
1.78,3.1281018524023239
1.784,2.6497212609392591
1.788,2.3017489748308435
1.792,2.1596331906912383
1.796,2.1479257119062822
1.8,2.1915035496058408
1.804,2.2477644893224351
1.808,2.2988221051346045
1.812,2.3345949569775257
1.816,2.3619124074757565
1.82,2.3752459249808453
1.824,2.3817500798613764
1.828,2.39085589669412
1.832,2.3986608825507574
1.836,2.4012625445029698
1.84,2.399636505782837
1.844,2.4038642064551823
1.848,2.4181733471923508
1.852,2.4230514633527491
1.856,2.4250027098169085
1.86,2.4305312414653599
1.864,2.4415883047622629
1.868,2.4474420441547409
1.872,2.4500437061069533
1.876,2.4536209912912454
1.88,2.4611007694038562
1.884,2.4669545087963343
1.888,2.4705317939806264
1.892,2.4770359488611575
1.896,2.485491350205848
1.9,2.4929711283184588
1.904,2.4968736212467775
1.908,2.4994752831989899
1.912,2.5072802690556273
1.916,2.5131340084481053
1.92,2.5180121246085037
1.924,2.5329716808337253
1.928,2.5557362229155842
1.932,2.5726470256049652
1.936,2.5840292966458946
1.94,2.5895578282943461
1.944,2.600614891591249
1.948,2.6178509020246565
1.952,2.6386641976423562
1.956,2.6594774932600558
1.96,2.6871201515023131
1.964,2.706957823887933
1.968,2.7173644716967829
1.972,2.7264702885295264
1.976,2.7362265208503231
1.98,2.7469583764031995
1.984,2.7502104538434651
1.988,2.7511860770755447
1.992,2.7482592073793057
1.996,2.7433810912189074
2,2.7424054679868277
2.004,2.7352508976182435
2.008,2.7248442498093937
2.012,2.7137871865124907
2.016,2.6939495141268708
2.02,2.6676076868607197
2.024,2.6393146131304093
2.028,2.6152492400724441
2.032,2.5885822050622664
2.036,2.557362261635717
2.04,2.5261423182091676
2.044,2.4968736212467775
2.048,2.4698813784925733
2.052,2.4461412131786346
2.056,2.428254787257174
2.06,2.4025633754790761
2.064,2.3840265340695623
2.068,2.3693921855883673
2.072,2.3645140694279689
2.076,2.3638636539399158
2.08,2.3619124074757565
2.084,2.3602863687556237
2.088,2.3479284744826145
2.092,2.3365462034416851
2.096,2.3352453724655788
2.1,2.3404486963700037
2.104,2.3423999428341631
2.108,2.3384974499058444
2.112,2.3463024357624818
2.116,2.3528065906430129
2.12,2.3515057596669067
2.124,2.3485788899706677
2.128,2.3485788899706677
2.132,2.3515057596669067
2.136,2.3518309674109332
2.14,2.3508553441788536
2.144,2.3524813828989863
2.148,2.3615871997317299
2.152,2.3677661468682345
2.156,2.3693921855883673
2.16,2.3658149004040752
2.164,2.3677661468682345
2.168,2.3723190552846063
2.172,2.3739450940047391
2.176,2.3765467559569515
2.18,2.3804492488852702
2.184,2.3863029882777482
2.188,2.3853273650456686
2.192,2.3840265340695623
2.196,2.3856525727896951
2.2,2.3898802734620403
2.204,2.3898802734620403
2.208,2.3817500798613764
2.212,2.3814248721173499
2.216,2.3794736256531905
2.22,2.3723190552846063
2.224,2.3687417701003142
2.228,2.3726442630286328
2.232,2.3830509108374827
2.236,2.3921567276702262
2.24,2.3963844283425715
2.244,2.3999617135268636
2.248,2.3970348438306246
2.252,2.3934575586463325
2.256,2.3902054812060669
2.26,2.3915063121821731
2.264,2.3941079741343856
2.268,2.3957340128545184
2.272,2.393782766390359
2.276,2.3989860902947839
2.28,2.4035389987111557
2.284,2.4087423226155806
2.288,2.4087423226155806
2.292,2.4097179458476603
2.296,2.4129700232879259
2.3,2.4132952310319524
2.304,2.4084171148715541
2.308,2.4074414916394744
2.312,2.413620438775979
2.316,2.419474178168457
2.32,2.4175229317042977
2.324,2.4142708542640321
2.328,2.4149212697520852
2.332,2.4230514633527491
2.336,2.4279295795131475
2.34,2.4289052027452271
2.344,2.4272791640250944
2.348,2.4292304104892537
2.352,2.4263035407930147
2.356,2.4217506323766429
2.36,2.4201245936565101
2.364,2.4233766710967757
2.368,2.4237018788408022
2.372,2.4230514633527491
2.376,2.4279295795131475
2.38,2.4406126815301832
2.384,2.4558974454994313
2.388,2.4643528468441218
2.392,2.4695561707485467
2.396,2.4734586636768654
2.4,2.4724830404447857
2.404,2.4702065862365998
2.408,2.4734586636768654
2.412,2.476710741117131
2.416,2.4741090791649185
2.42,2.4663040933082812
2.424,2.4617511848919094
2.428,2.4591495229396969
2.432,2.4584991074516438
2.436,2.4591495229396969
2.44,2.4545966145233251
2.444,2.4484176673868205
2.448,2.4464664209226612
2.452,2.4467916286666878
2.456,2.445165589946555
2.46,2.4409378892742097
2.464,2.4415883047622629
2.468,2.4467916286666878
2.472,2.4477672518987674
2.476,2.445165589946555
2.48,2.4471168364107143
2.484,2.4399622660421301
2.488,2.4191489704244304
2.492,2.3876038192538545
2.496,2.3654896926600486
2.5,2.3830509108374827
2.504,2.473783871420892
2.508,2.6337860814819578
2.512,2.8136259639286436
2.516,3.0139539342490025
2.52,3.2494043409242295
2.524,3.4741228920465801
2.528,3.5580264900054317
2.532,3.353145611268701
2.536,2.9059849632321857
2.54,2.5105323464958929
2.544,2.2926431579980999
2.548,2.2367074260255322
2.552,2.2578459293872584
2.556,2.2981716896465514
2.56,2.3368714111857116
2.564,2.3664653158921283
2.568,2.3889046502299607
2.572,2.3950835973664653
2.576,2.3976852593186777
2.58,2.3973600515746512
2.584,2.4012625445029698
2.588,2.4045146219432354
2.592,2.3993112980388105
2.596,2.3973600515746512
2.6,2.4019129599910229
2.604,2.4116691923118196
2.608,2.4162221007281914
2.612,2.4184985549363773
2.616,2.4227262556087226
2.62,2.4246775020728819
2.624,2.425327917560935
2.628,2.4285799950012006
2.632,2.4363849808578379
2.636,2.4399622660421301
2.64,2.442238720250316
2.644,2.4526453680591658
2.648,2.468580547516467
2.652,2.4754099101410247
2.656,2.4799628185573965
2.66,2.485491350205848
2.664,2.4952475825266447
2.668,2.5020769451512024
2.672,2.5098819310078397
2.676,2.5176869168644771
2.68,2.5248414872330613
2.684,2.5339473040658049
2.688,2.5378497969941236
2.692,2.5466304060828406
2.696,2.5664680784684606
2.7,2.588907412806293
2.704,2.6022409303113818
2.708,2.6136232013523113
2.712,2.629233173065586
2.716,2.6467943912430201
2.72,2.6653312326525338
2.724,2.6770387114374898
2.728,2.6854941127821803
2.732,2.6897218134545255
2.736,2.6926486831507646
2.74,2.692323475406738
2.744,2.6936243063828442
2.748,2.6887461902224459
2.752,2.6796403733897023
2.756,2.6640304016764276
2.76,2.6532985461235512
2.764,2.6484204299631529
2.768,2.6402902363624889
2.772,2.6198021484888159
2.776,2.5963871909189038
2.78,2.5719966101169121
2.784,2.5495572757790796
2.788,2.5215894097927958
2.792,2.4984996599669103
2.796,2.4799628185573965
2.8,2.462726808123989
2.804,2.4406126815301832
2.808,2.4175229317042977
2.812,2.3976852593186777
2.816,2.3843517418135889
2.82,2.3690669778443407
2.824,2.3537822138750926
2.828,2.3479284744826145
2.832,2.3492293054587208
2.836,2.3440259815542959
2.84,2.3371966189297382
2.844,2.3329689182573929
2.848,2.3342697492334992
2.852,2.3326437105133664
2.856,2.3323185027693398
2.86,2.3326437105133664
2.864,2.3394730731379241
2.868,2.3469528512505349
2.872,2.347603266738588
2.876,2.3433755660662428
2.88,2.3423999428341631
2.884,2.3404486963700037
2.888,2.3391478653938975
2.892,2.3410991118580569
2.896,2.3437007738102693
2.9,2.3437007738102693
2.904,2.3450016047863755
2.908,2.3459772280184552
2.912,2.3489040977146942
2.916,2.3489040977146942
2.92,2.3485788899706677
2.924,2.3466276435065083
2.928,2.3450016047863755
2.932,2.3450016047863755
2.936,2.3482536822266411
2.94,2.3482536822266411
2.944,2.3469528512505349
2.948,2.3456520202744287
2.952,2.3410991118580569
2.956,2.3404486963700037
2.96,2.3430503583222162
2.964,2.3482536822266411
2.968,2.3492293054587208
2.972,2.3443511892983224
2.976,2.3384974499058444
2.98,2.3410991118580569
2.984,2.3407739041140303
2.988,2.3394730731379241
2.992,2.3394730731379241
2.996,2.3362209956976585
3,2.3313428795372602
3.004,2.3258143478888087
3.008,2.3225622704485431
3.012,2.3245135169127025
3.016,2.3319932950253133
3.02,2.3368714111857116
3.024,2.3368714111857116
3.028,2.3384974499058444
3.032,2.3394730731379241
3.036,2.3310176717932336
3.04,2.3238631014246494
3.044,2.3261395556328353
3.048,2.3371966189297382
3.052,2.335895787953632
3.056,2.3297168408171274
3.06,2.3274403866089415
3.064,2.3303672563051805
3.068,2.3355705802096054
3.072,2.3336193337454461
3.076,2.3326437105133664
3.08,2.3329689182573929
3.084,2.3329689182573929
3.088,2.3310176717932336
3.092,2.3313428795372602
3.096,2.3381722421618178
3.1,2.3459772280184552
3.104,2.3485788899706677
3.108,2.3495545132027473
3.112,2.3531317983870395
3.116,2.3547578371071722
3.12,2.3560586680832785
3.124,2.3674409391242079
3.128,2.379148417909164
3.132,2.3898802734620403
3.136,2.3941079741343856
3.14,2.3898802734620403
3.144,2.3895550657180138
3.148,2.3950835973664653
3.152,2.3999617135268636
3.156,2.3941079741343856
3.16,2.3869534037658013
3.164,2.3869534037658013
3.168,2.387929026997881
3.172,2.3876038192538545
3.176,2.3856525727896951
3.18,2.3797988333972171
3.184,2.3713434320525266
3.188,2.3638636539399158
3.192,2.3589855377795175
3.196,2.3638636539399158
3.2,2.365164484916022
3.204,2.3658149004040752
3.208,2.3661401081481017
3.212,2.3658149004040752
3.216,2.3645140694279689
3.22,2.3632132384518627
3.224,2.3580099145474378
3.228,2.3482536822266411
3.232,2.3287412175850477
3.236,2.3027245980629232
3.24,2.2984968973905779
3.244,2.347603266738588
3.248,2.4708570017246529
3.252,2.6298835885536391
3.256,2.8006176541675813
3.26,3.0045229096722323
3.264,3.2120054503611755
3.268,3.3450154176680371
3.272,3.2594857809890527
3.276,2.9284242975700181
3.28,2.5424027054104954
3.284,2.2858137953735422
3.288,2.1784952398447786
3.292,2.1823977327730972
3.296,2.2305284788890276
3.3,2.2763827707967721
3.304,2.3212614394724369
3.308,2.3492293054587208
3.312,2.3684165623562876
3.316,2.3771971714450046
3.32,2.3768719637009781
3.324,2.3697173933323938
3.328,2.3723190552846063
3.332,2.3788232101651374
3.336,2.3856525727896951
3.34,2.3934575586463325
3.344,2.3963844283425715
3.348,2.396709636086598
3.352,2.4038642064551823
3.356,2.4071162838954479
3.36,2.4045146219432354
3.364,2.4051650374312885
3.368,2.4149212697520852
3.372,2.4207750091445632
3.376,2.4263035407930147
3.38,2.4321572801854927
3.384,2.4415883047622629
3.388,2.4506941215950064
3.392,2.4571982764755376
3.396,2.456873068731511
3.4,2.4604503539158031
3.404,2.4708570017246529
3.408,2.4812636495335028
3.412,2.4919955050863791
3.416,2.5014265296631493
3.42,2.5147600471682381
3.424,2.5254919027211145
3.428,2.5310204343695659
3.432,2.542727913154522
3.436,2.5528093532193452
3.44,2.5651672474923544
3.444,2.5846797121339478
3.448,2.6022409303113818
3.452,2.6198021484888159
3.456,2.6269567188574001
3.46,2.6315096272737719
3.464,2.6454935602669138
3.468,2.6588270777720027
3.472,2.6744370494852774
3.476,2.689396605710499
3.48,2.6932990986388177
3.484,2.6968763838231098
3.488,2.6972015915671363
3.492,2.6959007605910301
3.496,2.6926486831507646
3.5,2.6845184895501006
3.504,2.6679328946047463
3.508,2.6575262467958964
3.512,2.6532985461235512
3.516,2.6480952222191263
3.52,2.6276071343454532
3.524,2.5954115676868241
3.528,2.5667932862124871
3.532,2.5450043673627079
3.536,2.5219146175368223
3.54,2.4955727902706712
3.544,2.4659788855642546
3.548,2.4435395512264222
3.552,2.4256531253049616
3.556,2.4093927381036337
3.56,2.3941079741343856
3.564,2.3830509108374827
3.568,2.3716686397965532
3.572,2.3589855377795175
3.576,2.3453268125304021
3.58,2.3394730731379241
3.584,2.3371966189297382
3.588,2.3303672563051805
3.592,2.3264647633768618
3.596,2.327765594352968
3.6,2.3326437105133664
3.604,2.3362209956976585
3.608,2.3342697492334992
3.612,2.3326437105133664
3.616,2.3355705802096054
3.62,2.3401234886259772
3.624,2.3433755660662428
3.628,2.3437007738102693
3.632,2.3472780589945614
3.636,2.3450016047863755
3.64,2.3440259815542959
3.644,2.3489040977146942
3.648,2.3560586680832785
3.652,2.3583351222914644
3.656,2.3511805519228801
3.66,2.3502049286908004
3.664,2.3531317983870395
3.668,2.3570342913153581
3.672,2.3550830448511988
3.676,2.3485788899706677
3.68,2.3440259815542959
3.684,2.3459772280184552
3.688,2.3440259815542959
3.692,2.3456520202744287
3.696,2.3453268125304021
3.7,2.3463024357624818
3.704,2.3466276435065083
3.708,2.3450016047863755
3.712,2.3456520202744287
3.716,2.3511805519228801
3.72,2.3508553441788536
3.724,2.3482536822266411
3.728,2.3440259815542959
3.732,2.3407739041140303
3.736,2.3371966189297382
3.74,2.3355705802096054
3.744,2.3381722421618178
3.748,2.3508553441788536
3.752,2.3554082525952253
3.756,2.350530136434827
3.76,2.3453268125304021
3.764,2.3479284744826145
3.768,2.3485788899706677
3.772,2.3420747350901365
3.776,2.3404486963700037
3.78,2.3453268125304021
3.784,2.3518309674109332
3.788,2.3560586680832785
3.792,2.3570342913153581
3.796,2.3554082525952253
3.8,2.353457006131066
3.804,2.3521561751549598
3.808,2.3557334603392519
3.812,2.3635384461958893
3.816,2.3671157313801814
3.82,2.3690669778443407
3.824,2.3729694707726594
3.828,2.3765467559569515
3.832,2.3801240411412437
3.836,2.382075287605403
3.84,2.3723190552846063
3.844,2.3749207172368187
3.848,2.3866281960217748
3.852,2.3986608825507574
3.856,2.4064658684073947
3.86,2.4116691923118196
3.864,2.4181733471923508
3.868,2.4168725162162445
3.872,2.4100431535916869
3.876,2.4087423226155806
3.88,2.4188237626804039
3.884,2.4298808259773068
3.888,2.4532957835472189
3.892,2.5027273606392555
3.896,2.554435391939478
3.9,2.5996392683591694
3.904,2.6243550569051877
3.908,2.6399650286184624
3.912,2.6480952222191263
3.916,2.6516725074034184
3.92,2.6487456377071794
3.924,2.6428918983147014
3.928,2.6367129511781968
3.932,2.6370381589222234
3.936,2.6396398208744358
3.94,2.6376885744102765
3.944,2.6334608737379313
3.948,2.635086912458064
3.952,2.6308592117857188
3.956,2.6123223703762051
3.96,2.5775251417653635
3.964,2.5385002124821767
3.968,2.5134592161921319
3.972,2.5511833144992124
3.976,2.6802907888777554
3.98,2.8711877346213441
3.984,3.0845240147027653
3.988,3.3219256678421516
3.992,3.5603029442136176
3.996,3.6985162354249042
4,3.557050866773352
4.004,3.122898528497899
4.008,2.6669572713726666
4.012,2.4126448155438993
4.016,2.3319932950253133
4.02,2.3498797209467739
4.024,2.3983356748067308
4.028,2.4536209912912454
4.032,2.4932963360624854
4.036,2.525817110465141
4.04,2.548581652547
4.044,2.5628907932841685
4.048,2.5716714023728855
4.052,2.5785007649974432
4.056,2.5778503495093901
4.06,2.5745982720691245
4.064,2.5807772192056291
4.068,2.588907412806293
4.072,2.5957367754308507
4.076,2.5999644761031959
4.08,2.6032165535434615
4.084,2.6093955006799661
4.088,2.6149240323284175
4.092,2.6185013175127096
4.096,2.6191517330007628
4.1,2.6276071343454532
4.104,2.6363877434341703
4.108,2.6451683525228873
4.112,2.6497212609392591
4.116,2.6529733383795246
4.12,2.6572010390518699
4.124,2.6630547784443479
4.128,2.6744370494852774
4.132,2.6802907888777554
4.136,2.6841932818060741
4.14,2.6832176585739944
4.144,2.6871201515023131
4.148,2.704030954191694
4.152,2.7134619787684642
4.156,2.723868626577314
4.16,2.7329744434100576
4.164,2.7446819221950136
4.168,2.7573650242120493
4.172,2.7664708410447929
4.176,2.7765522811096162
4.18,2.7905362141027581
4.184,2.8080974322801922
4.188,2.8181788723450154
4.192,2.8256586504576262
4.196,2.8396425834507681
4.2,2.8578542171162553
4.204,2.8689112804131582
4.208,2.8698869036452379
4.212,2.8633827487647068
4.216,2.8604558790684678
4.22,2.8484231925394852
4.224,2.8337888440582901
4.228,2.8168780413689092
4.232,2.8006176541675813
4.236,2.7814303972700145
4.24,2.7547633622598369
4.244,2.729722365969792
4.248,2.7066326161439065
4.252,2.6783395424135961
4.256,2.6458187680109404
4.26,2.6152492400724441
4.264,2.5879317895742133
4.268,2.5593135080998763
4.272,2.5313456421135925
4.276,2.5014265296631493
4.28,2.4728082481888123
4.284,2.4487428751308471
4.288,2.4315068646974396
4.292,2.4266287485370412
4.296,2.425327917560935
4.3,2.425327917560935
4.304,2.4184985549363773
4.308,2.4071162838954479
4.312,2.3973600515746512
4.316,2.3931323509023059
4.32,2.3905306889500935
4.324,2.39085589669412
4.328,2.3934575586463325
4.332,2.3963844283425715
4.336,2.399636505782837
4.34,2.3973600515746512
4.344,2.3918315199261997
4.348,2.3928071431582794
4.352,2.3928071431582794
4.356,2.3924819354142528
4.36,2.387929026997881
4.364,2.3846769495576154
4.368,2.3866281960217748
4.372,2.379148417909164
4.376,2.3693921855883673
4.38,2.3706930165644735
4.384,2.379148417909164
4.388,2.3866281960217748
4.392,2.3892298579739872
4.396,2.3911811044381466
4.4,2.39085589669412
4.404,2.3898802734620403
4.408,2.3911811044381466
4.412,2.3905306889500935
4.416,2.3866281960217748
4.42,2.3827257030934561
4.424,2.3771971714450046
4.428,2.3729694707726594
4.432,2.3706930165644735
4.436,2.365164484916022
4.44,2.3619124074757565
4.444,2.3645140694279689
4.448,2.3664653158921283
4.452,2.3658149004040752
4.456,2.3560586680832785
4.46,2.3456520202744287
4.464,2.3407739041140303
4.468,2.3440259815542959
4.472,2.3508553441788536
4.476,2.3528065906430129
4.48,2.3515057596669067
4.484,2.3502049286908004
4.488,2.3466276435065083
4.492,2.3397982808819506
4.496,2.3349201647215523
4.5,2.3332941260014195
4.504,2.3284160098410212
4.508,2.3228874781925697
4.512,2.3251639324007556
4.516,2.3290664253290743
4.52,2.3365462034416851
4.524,2.3401234886259772
4.528,2.3368714111857116
4.532,2.3329689182573929
4.536,2.3316680872812867
4.54,2.3267899711208884
4.544,2.3271151788649149
4.548,2.3310176717932336
4.552,2.3365462034416851
4.556,2.3310176717932336
4.56,2.318984985264251
4.564,2.3063018832472153
4.568,2.3004481438547373
4.572,2.2988221051346045
4.576,2.3059766755031887
4.58,2.3154077000799589
4.584,2.327765594352968
4.588,2.3336193337454461
4.592,2.3336193337454461
4.596,2.3332941260014195
4.6,2.34174952734611
4.604,2.3537822138750926
4.608,2.3632132384518627
4.612,2.3641888616839424
4.616,2.3745955094927922
4.62,2.3784980024211109
4.624,2.3713434320525266
4.628,2.3580099145474378
4.632,2.3502049286908004
4.636,2.3456520202744287
4.64,2.3420747350901365
4.644,2.3443511892983224
4.648,2.3466276435065083
4.652,2.3463024357624818
4.656,2.3433755660662428
4.66,2.3430503583222162
4.664,2.3423999428341631
4.668,2.3433755660662428
4.672,2.3407739041140303
4.676,2.344676397042349
4.68,2.3420747350901365
4.684,2.324838724656729
4.688,2.2936187812301796
4.692,2.2679273694520816
4.696,2.2867894186056219
4.7,2.3827257030934561
4.704,2.5371993815060705
4.708,2.7020797077275347
4.712,2.8955783154233359
4.716,3.1290774756344035
4.72,3.3544464422448073
4.724,3.4363987937394995
4.728,3.2272902143304236
4.732,2.786958928918466
4.736,2.4025633754790761
4.74,2.2002841586945578
4.744,2.1632104758755304
4.748,2.2019101974146906
4.752,2.2435367886500899
4.756,2.2767079785407986
4.76,2.3007733515987638
4.764,2.3186597775202245
4.768,2.3264647633768618
4.772,2.3261395556328353
4.776,2.3258143478888087
4.78,2.3300420485611539
4.784,2.3352453724655788
4.788,2.3394730731379241
4.792,2.3365462034416851
4.796,2.3336193337454461
4.8,2.3427251505781896
4.804,2.3498797209467739
4.808,2.3524813828989863
4.812,2.3619124074757565
4.816,2.3719938475405797
4.82,2.3723190552846063
4.824,2.3687417701003142
4.828,2.3687417701003142
4.832,2.3771971714450046
4.836,2.3827257030934561
4.84,2.3817500798613764
4.844,2.3837013263255358
4.848,2.3911811044381466
4.852,2.4058154529193416
4.856,2.4155716852401383
4.86,2.4191489704244304
4.864,2.4230514633527491
4.868,2.428254787257174
4.872,2.4315068646974396
4.876,2.4344337343936786
4.88,2.4458160054346081
4.884,2.4611007694038562
4.888,2.4757351178850513
4.892,2.4900442586222198
4.896,2.5014265296631493
4.9,2.5163860858883709
4.904,2.5261423182091676
4.908,2.5303700188815128
4.912,2.5375245892500971
4.916,2.5446791596186813
4.92,2.5502076912671328
4.924,2.5589883003558498
4.928,2.5635412087722216
4.932,2.563216001028195
4.936,2.5628907932841685
4.94,2.560289131331956
4.944,2.5541101841954514
4.948,2.5440287441306282
4.952,2.5306952266255394
4.956,2.5137844239361584
4.96,2.4955727902706712
4.964,2.4793124030693434
4.968,2.4594747306837235
4.972,2.4363849808578379
4.976,2.4181733471923508
4.98,2.399636505782837
4.984,2.3752459249808453
4.988,2.3443511892983224
4.992,2.3137816613598261
4.996,2.2913423270219937
5,2.2754071475646924
5.004,2.2562198906671256
5.008,2.2432115809060633
5.012,2.2331301408412401
5.016,2.2282520246808417
5.02,2.2204470388242044
5.024,2.2071135213191155
5.028,2.2032110283907969
5.032,2.2028858206467703
5.036,2.2025606129027437
5.04,2.1973572889983188
5.044,2.1918287573498674
5.048,2.1941052115580533
5.052,2.1993085354624782
5.056,2.1986581199744251
5.06,2.1957312502781861
5.064,2.1950808347901329
5.068,2.1960564580222126
5.072,2.1950808347901329
5.076,2.2015849896706641
5.08,2.212642052967567
5.084,2.2249999472405761
5.088,2.2259755704726558
5.092,2.2201218310801778
5.096,2.2158941304078326
5.1,2.2123168452235404
5.104,2.2116664297354873
5.108,2.2152437149197794
5.112,2.2249999472405761
5.116,2.2289024401688948
5.12,2.2347561795613728
5.124,2.235406595049426
5.128,2.2311788943770807
5.132,2.2269511937047355
5.136,2.221422662056284
5.14,2.2171949613839388
5.144,2.2178453768719919
5.148,2.2246747394965496
5.152,2.2298780634009745
5.156,2.2334553485852666
5.16,2.2370326337695587
5.164,2.2389838802337181
5.168,2.2409351266978774
5.172,2.2389838802337181
5.176,2.2328049330972135
5.18,2.2367074260255322
5.184,2.2406099189538509
5.188,2.241260334441904
5.192,2.2347561795613728
5.196,2.2347561795613728
5.2,2.2376830492576119
5.204,2.2406099189538509
5.208,2.2428863731620368
5.212,2.244187204138143
5.216,2.2464636583463289
5.22,2.2458132428582758
5.224,2.2435367886500899
5.228,2.2493905280425679
5.232,2.2549190596910194
5.236,2.2578459293872584
5.24,2.2552442674350459
5.244,2.25296781322686
5.248,2.2607727990834974
5.252,2.2646752920118161
5.256,2.2643500842677895
5.26,2.2650004997558426
5.264,2.2676021617080551
5.268,2.2659761229879223
5.272,2.2601223835954443
5.276,2.2650004997558426
5.28,2.2812608869571704
5.284,2.304350636783056
5.288,2.3154077000799589
5.292,2.3180093620321713
5.296,2.3144320768478792
5.3,2.3111799994076136
5.304,2.3154077000799589
5.308,2.3310176717932336
5.312,2.3410991118580569
5.316,2.344676397042349
5.32,2.344676397042349
5.324,2.3391478653938975
5.328,2.3349201647215523
5.332,2.3326437105133664
5.336,2.3271151788649149
5.34,2.318984985264251
5.344,2.3118304148956668
5.348,2.3085783374554012
5.352,2.3069522987352684
5.356,2.3066270909912419
5.36,2.3095539606874809
5.364,2.3141068691038527
5.368,2.3173589465441182
5.372,2.3176841542881448
5.376,2.318984985264251
5.38,2.3235378936806228
5.384,2.3173589465441182
5.388,2.3007733515987638
5.392,2.2702038236602675
5.396,2.2380082570016384
5.4,2.2484149048104882
5.404,2.3371966189297382
5.408,2.5011013219191227
5.412,2.6741118417412508
5.416,2.8581794248602819
5.42,3.0695644584775437
5.424,3.2685915978217963
5.428,3.3352591853472404
5.432,3.140459746675333
5.436,2.7118359400483314
5.44,2.3420747350901365
5.444,2.149551750626415
5.448,2.1196326381759718
5.452,2.1765439933806192
5.456,2.2376830492576119
5.46,2.2819113024452236
5.464,2.3118304148956668
5.468,2.3271151788649149
5.472,2.3280908020969946
5.476,2.3254891401447821
5.48,2.3310176717932336
5.484,2.3391478653938975
5.488,2.3423999428341631
5.492,2.3485788899706677
5.496,2.3492293054587208
5.5,2.3550830448511988
5.504,2.3557334603392519
5.508,2.3612619919877034
5.512,2.3736198862607125
5.516,2.3856525727896951
5.52,2.3859777805337217
5.524,2.3827257030934561
5.528,2.3885794424859341
5.532,2.4006121290149167
5.536,2.4090675303596072
5.54,2.4152464774961118
5.544,2.4204498014005367
5.548,2.4302060337213334
5.552,2.4370353963458911
5.556,2.442238720250316
5.56,2.4467916286666878
5.564,2.4549218222673517
5.568,2.4650032623321749
5.572,2.4747594946529716
5.576,2.4893938431341667
5.58,2.500125698687043
5.584,2.511182761983946
5.588,2.5163860858883709
5.592,2.5222398252808489
5.596,2.5349229272978846
5.6,2.5476060293149203
5.604,2.563216001028195
5.608,2.5781755572534166
5.612,2.5954115676868241
5.616,2.614598824584391
5.62,2.6282575498335063
5.624,2.6337860814819578
5.628,2.6347617047140375
5.632,2.6357373279461171
5.636,2.6367129511781968
5.64,2.6396398208744358
5.644,2.6363877434341703
5.648,2.6295583808096126
5.652,2.6269567188574001
5.656,2.6243550569051877
5.66,2.6237046414171346
5.664,2.6201273562328424
5.668,2.6080946697038598
5.672,2.5879317895742133
5.676,2.5658176629804075
5.68,2.5469556138268672
5.684,2.5362237582739908
5.688,2.5215894097927958
5.692,2.5066298535675742
5.696,2.4900442586222198
5.7,2.4724830404447857
5.704,2.4487428751308471
5.708,2.4344337343936786
5.712,2.4295556182332803
5.716,2.4289052027452271
5.72,2.4197993859124836
5.724,2.4064658684073947
5.728,2.3983356748067308
5.732,2.3924819354142528
5.736,2.3843517418135889
5.74,2.3784980024211109
5.744,2.3745955094927922
5.748,2.3778475869330578
5.752,2.3817500798613764
5.756,2.3915063121821731
5.76,2.3934575586463325
5.764,2.3905306889500935
5.768,2.3846769495576154
5.772,2.3837013263255358
5.776,2.3911811044381466
5.78,2.4032137909671292
5.784,2.4087423226155806
5.788,2.4074414916394744
5.792,2.4012625445029698
5.796,2.3970348438306246
5.8,2.3983356748067308
5.804,2.3986608825507574
5.808,2.3999617135268636
5.812,2.3980104670627043
5.816,2.4006121290149167
5.82,2.4002869212708902
5.824,2.3931323509023059
5.828,2.3928071431582794
5.832,2.3928071431582794
5.836,2.3921567276702262
5.84,2.3856525727896951
5.844,2.3830509108374827
5.848,2.387929026997881
5.852,2.3859777805337217
5.856,2.3781727946770843
5.86,2.373294678516686
5.864,2.3775223791890312
5.868,2.3801240411412437
5.872,2.3752459249808453
5.876,2.3706930165644735
5.88,2.3713434320525266
5.884,2.3817500798613764
5.888,2.3915063121821731
5.892,2.3928071431582794
5.896,2.3872786115098279
5.9,2.3833761185815092
5.904,2.3814248721173499
5.908,2.379148417909164
5.912,2.3745955094927922
5.916,2.3710182243085001
5.92,2.3684165623562876
5.924,2.3680913546122611
5.928,2.373294678516686
5.932,2.3778475869330578
5.936,2.3804492488852702
5.94,2.3765467559569515
5.944,2.3713434320525266
5.948,2.3684165623562876
5.952,2.3658149004040752
5.956,2.3684165623562876
5.96,2.3687417701003142
5.964,2.3661401081481017
5.968,2.3684165623562876
5.972,2.3719938475405797
5.976,2.3856525727896951
5.98,2.4061406606633682
5.984,2.4204498014005367
5.988,2.4240270865848288
5.992,2.4188237626804039
5.996,2.4162221007281914
6,2.4233766710967757
6.004,2.431181656953413
6.008,2.4295556182332803
6.012,2.4279295795131475
6.016,2.4266287485370412
6.02,2.4184985549363773
6.024,2.4006121290149167
6.028,2.3840265340695623
6.032,2.3788232101651374
6.036,2.3739450940047391
6.04,2.3706930165644735
6.044,2.3674409391242079
6.048,2.3661401081481017
6.052,2.3713434320525266
6.056,2.379148417909164
6.06,2.3837013263255358
6.064,2.3856525727896951
6.068,2.3837013263255358
6.072,2.3781727946770843
6.076,2.3736198862607125
6.08,2.3671157313801814
6.084,2.3524813828989863
6.088,2.3290664253290743
6.092,2.3173589465441182
6.096,2.359310745523544
6.1,2.4786619875812903
6.104,2.6354121202020906
6.108,2.7915118373348378
6.112,2.9833844063105062
6.116,3.16907802814967
6.12,3.2708680520299822
6.124,3.1593217958288733
6.128,2.8077722245361656
6.132,2.4269539562810678
6.136,2.1999589509505313
6.14,2.1248359620803967
6.144,2.1557306977629196
6.148,2.2145932994317263
6.152,2.2597971758514177
6.156,2.2971960664144717
6.16,2.3235378936806228
6.164,2.3378470344177913
6.168,2.3472780589945614
6.172,2.3404486963700037
6.176,2.3316680872812867
6.18,2.335895787953632
6.184,2.3466276435065083
6.188,2.3550830448511988
6.192,2.3580099145474378
6.196,2.3586603300354909
6.2,2.3586603300354909
6.204,2.3583351222914644
6.208,2.3609367842436768
6.212,2.3687417701003142
6.216,2.3729694707726594
6.22,2.3729694707726594
6.224,2.3697173933323938
6.228,2.3680913546122611
6.232,2.3687417701003142
6.236,2.376221548212925
6.24,2.382075287605403
6.244,2.3869534037658013
6.248,2.3915063121821731
6.252,2.3983356748067308
6.256,2.404839829687262
6.26,2.4090675303596072
6.264,2.4188237626804039
6.268,2.4259783330489881
6.272,2.4240270865848288
6.276,2.4272791640250944
6.28,2.4396370582981035
6.284,2.4558974454994313
6.288,2.4676049242843874
6.292,2.4708570017246529
6.296,2.47963761081337
6.3,2.4910198818542995
6.304,2.5050038148474414
6.308,2.5144348394242115
6.312,2.5225650330248754
6.316,2.5365489660180174
6.32,2.5482564448029734
6.324,2.5489068602910265
6.328,2.5472808215708937
6.332,2.5466304060828406
6.336,2.5466304060828406
6.34,2.5398010434582829
6.344,2.5313456421135925
6.348,2.5264675259531941
6.352,2.5183373323525302
6.356,2.5053290225914679
6.36,2.4926459205744322
6.364,2.4832148959976621
6.368,2.4734586636768654
6.372,2.4624016003799625
6.376,2.456873068731511
6.38,2.4529705758031923
6.384,2.445165589946555
6.388,2.4315068646974396
6.392,2.4113439845677931
6.396,2.3941079741343856
6.4,2.3742703017487656
6.404,2.3573594990593847
6.408,2.3482536822266411
6.412,2.3450016047863755
6.416,2.3401234886259772
6.42,2.3300420485611539
6.424,2.3150824923359323
6.428,2.3020741825748701
6.432,2.2919927425100468
6.436,2.2887406650697812
6.44,2.284512964397436
6.444,2.2825617179332767
6.448,2.2900414960458875
6.452,2.2994725206226576
6.456,2.3046758445270825
6.46,2.304350636783056
6.464,2.3053262600151356
6.468,2.3092287529434543
6.472,2.3095539606874809
6.476,2.3046758445270825
6.48,2.2997977283666842
6.484,2.2978464819025248
6.488,2.3020741825748701
6.492,2.2997977283666842
6.496,2.301423767086817
6.5,2.3095539606874809
6.504,2.3183345697761979
6.508,2.3186597775202245
6.512,2.3118304148956668
6.516,2.3053262600151356
6.52,2.2988221051346045
6.524,2.3020741825748701
6.528,2.3128060381277464
6.532,2.3170337388000917
6.536,2.3134564536157995
6.54,2.3030498058069497
6.544,2.301423767086817
6.548,2.3076027142233215
6.552,2.3092287529434543
6.556,2.2978464819025248
6.56,2.2906919115339406
6.564,2.2906919115339406
6.568,2.2913423270219937
6.572,2.2952448199503124
6.576,2.2997977283666842
6.58,2.3069522987352684
6.584,2.3173589465441182
6.588,2.3154077000799589
6.592,2.3063018832472153
6.596,2.2994725206226576
6.6,2.3063018832472153
6.604,2.3069522987352684
6.608,2.3037002212950028
6.612,2.3095539606874809
6.616,2.3124808303837199
6.62,2.3150824923359323
6.624,2.3163833233120386
6.628,2.3144320768478792
6.632,2.3154077000799589
6.636,2.3238631014246494
6.64,2.3313428795372602
6.644,2.3420747350901365
6.648,2.3554082525952253
6.652,2.373294678516686
6.656,2.3693921855883673
6.66,2.3550830448511988
6.664,2.3463024357624818
6.668,2.3557334603392519
6.672,2.3739450940047391
6.676,2.3856525727896951
6.68,2.3824004953494295
6.684,2.3736198862607125
6.688,2.3524813828989863
6.692,2.3329689182573929
6.696,2.3212614394724369
6.7,2.316058115568012
6.704,2.3267899711208884
6.708,2.3293916330731008
6.712,2.3293916330731008
6.716,2.3303672563051805
6.72,2.3287412175850477
6.724,2.3232126859365962
6.728,2.3202858162403572
6.732,2.324838724656729
6.736,2.3271151788649149
6.74,2.3284160098410212
6.744,2.3280908020969946
6.748,2.3316680872812867
6.752,2.3342697492334992
6.756,2.3147572845919058
6.76,2.2994725206226576
6.764,2.3368714111857116
6.768,2.4435395512264222
6.772,2.6194769407447893
6.776,2.8269594814337324
6.78,3.0490763706038706
6.784,3.2422497705556452
6.788,3.3359096008352935
6.792,3.1921677779755555
6.796,2.7895605908706784
6.8,2.3391478653938975
6.804,2.0705262688279618
6.808,1.9976797341660131
6.812,2.0288996775925625
6.816,2.1053234974388033
6.82,2.1879262644215487
6.824,2.2516669822507538
6.828,2.2988221051346045
6.832,2.3362209956976585
6.836,2.3580099145474378
6.84,2.362237615219783
6.844,2.3654896926600486
6.848,2.3749207172368187
6.852,2.3810996643733233
6.856,2.385002157301642
6.86,2.3889046502299607
6.864,2.3986608825507574
6.868,2.4113439845677931
6.872,2.4145960620080587
6.876,2.4214254246326163
6.88,2.4269539562810678
6.884,2.4295556182332803
6.888,2.4298808259773068
6.892,2.4350841498817317
6.896,2.448092459642794
6.9,2.45979993842775
6.904,2.4646780545881484
6.908,2.4653284700762015
6.912,2.4679301320284139
6.916,2.4734586636768654
6.92,2.4864669734379277
6.924,2.4984996599669103
6.928,2.508255892287707
6.932,2.5196381633286364
6.936,2.5261423182091676
6.94,2.5323212653456721
6.944,2.5368741737620439
6.948,2.5479312370589469
6.952,2.563216001028195
6.956,2.5713461946288589
6.96,2.5788259727414697
6.964,2.5931351134786382
6.968,2.6142736168403644
6.972,2.6289079653215595
6.976,2.6402902363624889
6.98,2.6536237538675778
6.984,2.6627295707003213
6.988,2.6646808171644807
6.992,2.6663068558846135
6.996,2.6780143346695695
7,2.6884209824784193
7.004,2.6910226444306318
7.008,2.6880957747343928
7.012,2.6874453592463396
7.016,2.6822420353419147
7.02,2.6731362185091712
7.024,2.6620791552122682
7.028,2.651997715147445
7.032,2.6396398208744358
7.036,2.626306303369347
7.04,2.6067938387277536
7.044,2.5895578282943461
7.048,2.569069740420673
7.052,2.5476060293149203
7.056,2.5264675259531941
7.06,2.5053290225914679
7.064,2.4874425966700073
7.068,2.4708570017246529
7.072,2.4464664209226612
7.076,2.4250027098169085
7.08,2.407766699383501
7.084,2.3986608825507574
7.088,2.3918315199261997
7.092,2.3853273650456686
7.096,2.379148417909164
7.1,2.3752459249808453
7.104,2.376221548212925
7.108,2.3778475869330578
7.112,2.3827257030934561
7.116,2.385002157301642
7.12,2.385002157301642
7.124,2.3856525727896951
7.128,2.3892298579739872
7.132,2.404839829687262
7.136,2.4142708542640321
7.14,2.4142708542640321
7.144,2.4175229317042977
7.148,2.4175229317042977
7.152,2.419474178168457
7.156,2.419474178168457
7.16,2.4175229317042977
7.164,2.4214254246326163
7.168,2.4243522943288554
7.172,2.4237018788408022
7.176,2.4171977239602711
7.18,2.4129700232879259
7.184,2.4181733471923508
7.188,2.422401047864696
7.192,2.4256531253049616
7.196,2.425327917560935
7.2,2.4207750091445632
7.204,2.4100431535916869
7.208,2.4142708542640321
7.212,2.4256531253049616
7.216,2.4324824879295193
7.22,2.4279295795131475
7.224,2.4188237626804039
7.228,2.4171977239602711
7.232,2.4276043717691209
7.236,2.4315068646974396
7.24,2.425327917560935
7.244,2.4204498014005367
7.248,2.4204498014005367
7.252,2.4227262556087226
7.256,2.4220758401206695
7.26,2.4201245936565101
7.264,2.4158968929841649
7.268,2.4087423226155806
7.272,2.3986608825507574
7.276,2.4035389987111557
7.28,2.4162221007281914
7.284,2.4373606040899176
7.288,2.4506941215950064
7.292,2.4555722377554048
7.296,2.4562226532434579
7.3,2.453946199035272
7.304,2.4555722377554048
7.308,2.456873068731511
7.312,2.453946199035272
7.316,2.4558974454994313
7.32,2.4604503539158031
7.324,2.456873068731511
7.328,2.4477672518987674
7.332,2.4389866428100504
7.336,2.4321572801854927
7.34,2.4230514633527491
7.344,2.4129700232879259
7.348,2.4051650374312885
7.352,2.4022381677350495
7.356,2.4080919071275275
7.36,2.413620438775979
7.364,2.4171977239602711
7.368,2.4181733471923508
7.372,2.4149212697520852
7.376,2.413620438775979
7.38,2.416547308472218
7.384,2.4184985549363773
7.388,2.4038642064551823
7.392,2.3739450940047391
7.396,2.3515057596669067
7.4,2.3693921855883673
7.404,2.4532957835472189
7.408,2.6077694619598333
7.412,2.7785035275737755
7.416,2.9674492268532049
7.42,3.1674519894295372
7.424,3.3189987981459126
7.428,3.3046896574087441
7.432,3.0419218002352864
7.436,2.6448431447788607
7.44,2.3485788899706677
7.444,2.2064631058310624
7.448,2.1937800038140267
7.452,2.2428863731620368
7.456,2.304350636783056
7.46,2.350530136434827
7.464,2.3892298579739872
7.468,2.4058154529193416
7.472,2.4110187768237665
7.476,2.4129700232879259
7.48,2.4178481394483242
7.484,2.4279295795131475
7.488,2.4302060337213334
7.492,2.4305312414653599
7.496,2.434108526649652
7.5,2.4367101886018645
7.504,2.4350841498817317
7.508,2.4331329034175724
7.512,2.4331329034175724
7.516,2.4428891357383691
7.52,2.4581738997076172
7.524,2.4702065862365998
7.528,2.4718326249567326
7.532,2.4708570017246529
7.536,2.4702065862365998
7.54,2.4702065862365998
7.544,2.4776863643492106
7.548,2.4874425966700073
7.552,2.4998004909430165
7.556,2.5059794380795211
7.56,2.5069550613116007
7.564,2.5163860858883709
7.568,2.5326464730896987
7.572,2.5407766666903626
7.576,2.545654782850761
7.58,2.5560614306596108
7.584,2.5703705713967793
7.588,2.5791511804854963
7.592,2.5872813740861602
7.596,2.5980132296390366
7.6,2.6132979936082847
7.604,2.6227290181850549
7.608,2.6315096272737719
7.612,2.6441927292908076
7.616,2.6594774932600558
7.62,2.6656564403965604
7.624,2.6617539474682417
7.628,2.6555750003317371
7.632,2.6572010390518699
7.636,2.66663206362864
7.64,2.672485803021118
7.644,2.6708597643009853
7.648,2.6646808171644807
7.652,2.6575262467958964
7.656,2.6510220919153653
7.66,2.6500464686832856
7.664,2.6441927292908076
7.668,2.635086912458064
7.672,2.6217533949529752
7.676,2.603541761287488
7.68,2.5869561663421337
7.684,2.5729722333489917
7.688,2.5524841454753187
7.692,2.52874398016138
7.696,2.511182761983946
7.7,2.4962232057587244
7.704,2.4793124030693434
7.708,2.4715074172127061
7.712,2.4607755616598297
7.716,2.4529705758031923
7.72,2.442238720250316
7.724,2.4302060337213334
7.728,2.4175229317042977
7.732,2.4087423226155806
7.736,2.4071162838954479
7.74,2.4041894141992088
7.744,2.404839829687262
7.748,2.413620438775979
7.752,2.4181733471923508
7.756,2.419474178168457
7.76,2.4184985549363773
7.764,2.4214254246326163
7.768,2.4263035407930147
7.772,2.4285799950012006
7.776,2.428254787257174
7.78,2.4259783330489881
7.784,2.4269539562810678
7.788,2.4263035407930147
7.792,2.4266287485370412
7.796,2.4233766710967757
7.8,2.4227262556087226
7.804,2.4207750091445632
7.808,2.419474178168457
7.812,2.4181733471923508
7.816,2.413620438775979
7.82,2.4071162838954479
7.824,2.4097179458476603
7.828,2.413620438775979
7.832,2.4113439845677931
7.836,2.4045146219432354
7.84,2.4009373367589433
7.844,2.4087423226155806
7.848,2.4139456465200055
7.852,2.4119944000558462
7.856,2.4022381677350495
7.86,2.3934575586463325
7.864,2.3941079741343856
7.868,2.3954088051104918
7.872,2.3941079741343856
7.876,2.3898802734620403
7.88,2.3889046502299607
7.884,2.3924819354142528
7.888,2.3960592205985449
7.892,2.3983356748067308
7.896,2.4012625445029698
7.9,2.3957340128545184
7.904,2.3885794424859341
7.908,2.3895550657180138
7.912,2.4009373367589433
7.916,2.416547308472218
7.92,2.4334581111615989
7.924,2.4409378892742097
7.928,2.4425639279943425
7.932,2.4363849808578379
7.936,2.434108526649652
7.94,2.431181656953413
7.944,2.4331329034175724
7.948,2.4279295795131475
7.952,2.4197993859124836
7.956,2.4080919071275275
7.96,2.3980104670627043
7.964,2.3863029882777482
7.968,2.3882542347419076
7.972,2.3954088051104918
7.976,2.3924819354142528
7.98,2.3889046502299607
7.984,2.3918315199261997
7.988,2.3947583896224387
7.992,2.3947583896224387
7.996,2.3993112980388105
8,2.4038642064551823
8.004,2.4025633754790761
8.008,2.3947583896224387
8.012,2.3915063121821731
8.016,2.3957340128545184
8.02,2.3924819354142528
8.024,2.3667905236361548
8.028,2.3443511892983224
8.032,2.3710182243085001
8.036,2.4724830404447857
8.04,2.6383389898983296
8.044,2.8191544955770951
8.048,3.0243605820578523
8.052,3.2311927072587423
8.056,3.3710320371901616
8.06,3.3147710974735674
8.064,2.9963927160715684
8.068,2.5570370538916904
8.072,2.2497157357865945
8.076,2.1303644937288482
8.08,2.1365434408653527
8.084,2.1941052115580533
8.088,2.2614232145715505
8.092,2.3137816613598261
8.096,2.3518309674109332
8.1,2.3700426010764204
8.104,2.379148417909164
8.108,2.3846769495576154
8.112,2.3944331818784121
8.116,2.4051650374312885
8.12,2.4067910761514213
8.124,2.4080919071275275
8.128,2.413620438775979
8.132,2.4201245936565101
8.136,2.4266287485370412
8.14,2.4295556182332803
8.144,2.4302060337213334
8.148,2.4324824879295193
8.152,2.4344337343936786
8.156,2.4315068646974396
8.16,2.4347589421377052
8.164,2.4454907976905815
8.168,2.4581738997076172
8.172,2.4663040933082812
8.176,2.4776863643492106
8.18,2.4893938431341667
8.184,2.4975240367348306
8.188,2.5004509064310696
8.192,2.5030525683832821
8.196,2.5121583852160256
8.2,2.5189877478405833
8.204,2.5248414872330613
8.208,2.5371993815060705
8.212,2.5528093532193452
8.216,2.5700453636527527
8.22,2.5804520114616025
8.224,2.5885822050622664
8.228,2.5931351134786382
8.232,2.603541761287488
8.236,2.6158996555604972
8.24,2.6240298491611611
8.244,2.6305340040416922
8.248,2.6448431447788607
8.252,2.660778324236162
8.256,2.6682581023487728
8.26,2.6685833100927994
8.264,2.6682581023487728
8.268,2.6728110107651446
8.272,2.6715101797890384
8.276,2.6630547784443479
8.28,2.6581766622839496
8.284,2.651997715147445
8.288,2.6393146131304093
8.292,2.626306303369347
8.296,2.614598824584391
8.3,2.6100459161680192
8.304,2.6002896838472225
8.308,2.5814276346936822
8.312,2.5641916242602747
8.316,2.5476060293149203
8.32,2.5339473040658049
8.324,2.514109631680185
8.328,2.4910198818542995
8.332,2.4646780545881484
8.336,2.4425639279943425
8.34,2.4171977239602711
8.344,2.3980104670627043
8.348,2.3856525727896951
8.352,2.3784980024211109
8.356,2.3739450940047391
8.36,2.3713434320525266
8.364,2.3768719637009781
8.368,2.3775223791890312
8.372,2.3778475869330578
8.376,2.3784980024211109
8.38,2.3784980024211109
8.384,2.3745955094927922
8.388,2.3749207172368187
8.392,2.3745955094927922
8.396,2.3797988333972171
8.4,2.385002157301642
8.404,2.3853273650456686
8.408,2.3830509108374827
8.412,2.3840265340695623
8.416,2.3872786115098279
8.42,2.387929026997881
8.424,2.3856525727896951
8.428,2.3898802734620403
8.432,2.3944331818784121
8.436,2.3941079741343856
8.44,2.3892298579739872
8.444,2.3824004953494295
8.448,2.379148417909164
8.452,2.3775223791890312
8.456,2.3830509108374827
8.46,2.3898802734620403
8.464,2.3928071431582794
8.468,2.3989860902947839
8.472,2.3905306889500935
8.476,2.3778475869330578
8.48,2.3710182243085001
8.484,2.3693921855883673
8.488,2.370367808820447
8.492,2.3664653158921283
8.496,2.373294678516686
8.5,2.3788232101651374
8.504,2.3758963404688984
8.508,2.3687417701003142
8.512,2.3625628229638096
8.516,2.3609367842436768
8.52,2.3612619919877034
8.524,2.3628880307078362
8.528,2.3664653158921283
8.532,2.373294678516686
8.536,2.3784980024211109
8.54,2.3778475869330578
8.544,2.3830509108374827
8.548,2.3905306889500935
8.552,2.3989860902947839
8.556,2.4025633754790761
8.56,2.4019129599910229
8.564,2.4035389987111557
8.568,2.4012625445029698
8.572,2.3934575586463325
8.576,2.3817500798613764
8.58,2.3710182243085001
8.584,2.3638636539399158
8.588,2.3641888616839424
8.592,2.3609367842436768
8.596,2.359310745523544
8.6,2.3583351222914644
8.604,2.3537822138750926
8.608,2.3502049286908004
8.612,2.3502049286908004
8.616,2.3570342913153581
8.62,2.3596359532675706
8.624,2.3632132384518627
8.628,2.3645140694279689
8.632,2.362237615219783
8.636,2.3437007738102693
8.64,2.3118304148956668
8.644,2.2887406650697812
8.648,2.3150824923359323
8.652,2.4084171148715541
8.656,2.5615899623080622
8.66,2.7264702885295264
8.664,2.9095622484164778
8.668,3.1199716588016599
8.672,3.2942830095998943
8.676,3.3007871644804254
8.68,3.0572065642045345
8.684,2.6480952222191263
8.688,2.3352453724655788
8.692,2.1807716940529644
8.696,2.1576819442270789
8.7,2.1957312502781861
8.704,2.2445124118821695
8.708,2.2851633798854891
8.712,2.3180093620321713
8.716,2.3437007738102693
8.72,2.3589855377795175
8.724,2.3625628229638096
8.728,2.3583351222914644
8.732,2.3580099145474378
8.736,2.3609367842436768
8.74,2.3654896926600486
8.744,2.3690669778443407
8.748,2.3781727946770843
8.752,2.3840265340695623
8.756,2.3863029882777482
8.76,2.3863029882777482
8.764,2.3889046502299607
8.768,2.387929026997881
8.772,2.3885794424859341
8.776,2.3944331818784121
8.78,2.4019129599910229
8.784,2.4038642064551823
8.788,2.4061406606633682
8.792,2.4080919071275275
8.796,2.4217506323766429
8.8,2.4370353963458911
8.804,2.4484176673868205
8.808,2.4558974454994313
8.812,2.4601251461717766
8.816,2.4659788855642546
8.82,2.4763855333731044
8.824,2.4838653114857152
8.828,2.4981744522228837
8.832,2.5076054767996538
8.836,2.5180121246085037
8.84,2.5274431491852738
8.844,2.5398010434582829
8.848,2.5505328990111593
8.852,2.5648420397483278
8.856,2.5719966101169121
8.86,2.5804520114616025
8.864,2.5960619831748772
8.868,2.6136232013523113
8.872,2.6230542259290814
8.876,2.6259810956253204
8.88,2.6224038104410283
8.884,2.6201273562328424
8.888,2.6185013175127096
8.892,2.6123223703762051
8.896,2.6097207084239926
8.9,2.6084198774478864
8.904,2.6045173845195677
8.908,2.5905334515264258
8.912,2.5736226488370448
8.916,2.5674437017005403
8.92,2.5638664165162481
8.924,2.5531345609633718
8.928,2.5336220963217784
8.932,2.5147600471682381
8.936,2.4936215438065119
8.94,2.4698813784925733
8.944,2.4471168364107143
8.948,2.4331329034175724
8.952,2.4259783330489881
8.956,2.4110187768237665
8.96,2.3947583896224387
8.964,2.3859777805337217
8.968,2.3784980024211109
8.972,2.3723190552846063
8.976,2.3658149004040752
8.98,2.356383875827305
8.984,2.350530136434827
8.988,2.3456520202744287
8.992,2.3427251505781896
8.996,2.3430503583222162
9,2.3511805519228801
9.004,2.3508553441788536
9.008,2.3511805519228801
9.012,2.3580099145474378
9.016,2.3648392771719955
9.02,2.3697173933323938
9.024,2.3648392771719955
9.028,2.3609367842436768
9.032,2.3632132384518627
9.036,2.3658149004040752
9.04,2.3628880307078362
9.044,2.3684165623562876
9.048,2.3745955094927922
9.052,2.3788232101651374
9.056,2.3765467559569515
9.06,2.3758963404688984
9.064,2.3752459249808453
9.068,2.3752459249808453
9.072,2.3700426010764204
9.076,2.3684165623562876
9.08,2.3671157313801814
9.084,2.3680913546122611
9.088,2.3664653158921283
9.092,2.3609367842436768
9.096,2.3615871997317299
9.1,2.3654896926600486
9.104,2.3684165623562876
9.108,2.3658149004040752
9.112,2.3635384461958893
9.116,2.3700426010764204
9.12,2.3684165623562876
9.124,2.3680913546122611
9.128,2.3690669778443407
9.132,2.3706930165644735
9.136,2.3658149004040752
9.14,2.3606115764996503
9.144,2.3524813828989863
9.148,2.3554082525952253
9.152,2.3680913546122611
9.156,2.3778475869330578
9.16,2.3830509108374827
9.164,2.3918315199261997
9.168,2.4002869212708902
9.172,2.4032137909671292
9.176,2.4032137909671292
9.18,2.4080919071275275
9.184,2.4119944000558462
9.188,2.4123196077998728
9.192,2.4116691923118196
9.196,2.4145960620080587
9.2,2.407766699383501
9.204,2.3902054812060669
9.208,2.3693921855883673
9.212,2.3615871997317299
9.216,2.3632132384518627
9.22,2.3723190552846063
9.224,2.3710182243085001
9.228,2.3671157313801814
9.232,2.3697173933323938
9.236,2.3700426010764204
9.24,2.3693921855883673
9.244,2.3706930165644735
9.248,2.3749207172368187
9.252,2.382075287605403
9.256,2.3856525727896951
9.26,2.3817500798613764
9.264,2.3700426010764204
9.268,2.3440259815542959
9.272,2.3121556226396933
9.276,2.3108547916635871
9.28,2.3778475869330578
9.284,2.5248414872330613
9.288,2.6874453592463396
9.292,2.861756710044574
9.296,3.071515704941703
9.3,3.2630630661733449
9.304,3.3180231749138329
9.308,3.125825398194138
9.312,2.7381777673144825
9.316,2.3960592205985449
9.32,2.212642052967567
9.324,2.1635356836195569
9.328,2.1996337432065047
9.332,2.2555694751790725
9.336,2.304350636783056
9.34,2.3437007738102693
9.344,2.3697173933323938
9.348,2.3840265340695623
9.352,2.3898802734620403
9.356,2.3856525727896951
9.36,2.3843517418135889
9.364,2.3905306889500935
9.368,2.396709636086598
9.372,2.3980104670627043
9.376,2.3970348438306246
9.38,2.4019129599910229
9.384,2.4152464774961118
9.388,2.4230514633527491
9.392,2.4237018788408022
9.396,2.4256531253049616
9.4,2.4285799950012006
9.404,2.4266287485370412
9.408,2.431181656953413
9.412,2.4435395512264222
9.416,2.4549218222673517
9.42,2.4558974454994313
9.424,2.4542714067792986
9.428,2.4529705758031923
9.432,2.4594747306837235
9.436,2.468580547516467
9.44,2.4802880263014231
9.444,2.4890686353901401
9.448,2.4981744522228837
9.452,2.5092315155197866
9.456,2.5186625400965568
9.46,2.5267927336972207
9.464,2.5332968885777518
9.468,2.5450043673627079
9.472,2.5567118461476639
9.476,2.5664680784684606
9.48,2.5749234798131511
9.484,2.5928099057346117
9.488,2.6100459161680192
9.492,2.6198021484888159
9.496,2.6250054723932408
9.5,2.6305340040416922
9.504,2.6347617047140375
9.508,2.6357373279461171
9.512,2.6396398208744358
9.516,2.6428918983147014
9.52,2.6425666905706748
9.524,2.6354121202020906
9.528,2.6279323420894798
9.532,2.6220786026970018
9.536,2.6152492400724441
9.54,2.6048425922635943
9.544,2.5915090747585054
9.548,2.5807772192056291
9.552,2.5667932862124871
9.556,2.5489068602910265
9.56,2.531670849857619
9.564,2.5167112936323974
9.568,2.5007761141750962
9.572,2.4812636495335028
9.576,2.4617511848919094
9.58,2.4448403822025284
9.584,2.4367101886018645
9.588,2.4240270865848288
9.592,2.4100431535916869
9.596,2.4025633754790761
9.6,2.3993112980388105
9.604,2.3960592205985449
9.608,2.3905306889500935
9.612,2.3837013263255358
9.616,2.379148417909164
9.62,2.3814248721173499
9.624,2.3830509108374827
9.628,2.3833761185815092
9.632,2.3859777805337217
9.636,2.3846769495576154
9.64,2.3794736256531905
9.644,2.376221548212925
9.648,2.3775223791890312
9.652,2.3817500798613764
9.656,2.3814248721173499
9.66,2.3784980024211109
9.664,2.3840265340695623
9.668,2.3902054812060669
9.672,2.3892298579739872
9.676,2.385002157301642
9.68,2.3853273650456686
9.684,2.39085589669412
9.688,2.393782766390359
9.692,2.3902054812060669
9.696,2.3863029882777482
9.7,2.385002157301642
9.704,2.3892298579739872
9.708,2.3889046502299607
9.712,2.3882542347419076
9.716,2.3892298579739872
9.72,2.385002157301642
9.724,2.3784980024211109
9.728,2.3758963404688984
9.732,2.3814248721173499
9.736,2.3824004953494295
9.74,2.3788232101651374
9.744,2.3729694707726594
9.748,2.373294678516686
9.752,2.3781727946770843
9.756,2.3797988333972171
9.76,2.3736198862607125
9.764,2.3697173933323938
9.768,2.3697173933323938
9.772,2.3667905236361548
9.776,2.3667905236361548
9.78,2.3687417701003142
9.784,2.379148417909164
9.788,2.387929026997881
9.792,2.3843517418135889
9.796,2.3765467559569515
9.8,2.3693921855883673
9.804,2.3710182243085001
9.808,2.3810996643733233
9.812,2.3944331818784121
9.816,2.4058154529193416
9.82,2.4139456465200055
9.824,2.4181733471923508
9.828,2.4175229317042977
9.832,2.4158968929841649
9.836,2.4240270865848288
9.84,2.4263035407930147
9.844,2.4246775020728819
9.848,2.4240270865848288
9.852,2.4227262556087226
9.856,2.4162221007281914
9.86,2.4064658684073947
9.864,2.3983356748067308
9.868,2.3918315199261997
9.872,2.3885794424859341
9.876,2.3837013263255358
9.88,2.3788232101651374
9.884,2.3768719637009781
9.888,2.3817500798613764
9.892,2.3905306889500935
9.896,2.3973600515746512
9.9,2.4002869212708902
9.904,2.3986608825507574
9.908,2.3954088051104918
9.912,2.3957340128545184
9.916,2.3905306889500935
9.92,2.373294678516686
9.924,2.3433755660662428
9.928,2.3170337388000917
9.932,2.3241883091686759
9.936,2.3960592205985449
9.94,2.5358985505299643
9.944,2.6949251373589505
9.948,2.876391058525769
9.952,3.0845240147027653
9.956,3.2591605732450262
9.96,3.2864780237432569
9.964,3.077369444334181
9.968,2.6994780457753222
9.972,2.3810996643733233
9.976,2.2165445458958857
9.98,2.1859750179573894
9.984,2.224349531752523
9.988,2.2767079785407986
9.992,2.3180093620321713
9.996,2.3498797209467739
10,2.3654896926600486
10.004,2.3729694707726594
10.008,2.3801240411412437
10.012,2.3941079741343856
10.016,2.4058154529193416
10.02,2.4100431535916869
10.024,2.4090675303596072
10.028,2.41069356907974
10.032,2.4155716852401383
10.036,2.4201245936565101
10.04,2.4207750091445632
10.044,2.4237018788408022
10.048,2.4334581111615989
10.052,2.442238720250316
10.056,2.4419135125062894
10.06,2.442238720250316
10.064,2.4438647589704487
10.068,2.4516697448270861
10.072,2.4578486919635907
10.076,2.45979993842775
10.08,2.4653284700762015
10.084,2.4770359488611575
10.088,2.4835401037416887
10.092,2.4880930121580604
10.096,2.4952475825266447
10.1,2.5037029838713352
10.104,2.5079306845436804
10.108,2.5095567232638132
10.112,2.5180121246085037
10.116,2.5349229272978846
10.12,2.5495572757790796
10.124,2.5560614306596108
10.128,2.5599639235879295
10.132,2.5765495185332838
10.136,2.6022409303113818
10.14,2.6188265252567362
10.144,2.6259810956253204
10.148,2.632160042761825
10.152,2.638013782154303
10.156,2.6393146131304093
10.16,2.6399650286184624
10.164,2.6428918983147014
10.168,2.6458187680109404
10.172,2.6458187680109404
10.176,2.6464691834989935
10.18,2.6432171060587279
10.184,2.6406154441065155
10.188,2.6318348350177985
10.192,2.6201273562328424
10.196,2.6123223703762051
10.2,2.6028913457994349
10.204,2.5872813740861602
10.208,2.5700453636527527
10.212,2.5599639235879295
10.216,2.5505328990111593
10.22,2.5368741737620439
10.224,2.5137844239361584
10.228,2.4903694663662463
10.232,2.4750847023969982
10.236,2.4640276391000953
10.24,2.4484176673868205
10.244,2.4386614350660238
10.248,2.4350841498817317
10.252,2.4305312414653599
10.256,2.4168725162162445
10.26,2.4035389987111557
10.264,2.3963844283425715
10.268,2.3924819354142528
10.272,2.3931323509023059
10.276,2.3892298579739872
10.28,2.385002157301642
10.284,2.3856525727896951
10.288,2.3895550657180138
10.292,2.3872786115098279
10.296,2.3856525727896951
10.3,2.3889046502299607
10.304,2.3931323509023059
10.308,2.3928071431582794
10.312,2.3931323509023059
10.316,2.3973600515746512
10.32,2.4041894141992088
10.324,2.4058154529193416
10.328,2.4022381677350495
10.332,2.4012625445029698
10.336,2.4009373367589433
10.34,2.4032137909671292
10.344,2.4045146219432354
10.348,2.4103683613357134
10.352,2.4152464774961118
10.356,2.4171977239602711
10.36,2.4116691923118196
10.364,2.4045146219432354
10.368,2.4035389987111557
10.372,2.4032137909671292
10.376,2.407766699383501
10.38,2.4097179458476603
10.384,2.4100431535916869
10.388,2.4054902451753151
10.392,2.3960592205985449
10.396,2.3898802734620403
10.4,2.3895550657180138
10.404,2.387929026997881
10.408,2.3840265340695623
10.412,2.3830509108374827
10.416,2.3807744566292968
10.42,2.3804492488852702
10.424,2.3784980024211109
10.428,2.3817500798613764
10.432,2.3876038192538545
10.436,2.3876038192538545
10.44,2.3856525727896951
10.444,2.3856525727896951
10.448,2.3931323509023059
10.452,2.3973600515746512
10.456,2.3924819354142528
10.46,2.3882542347419076
10.464,2.3882542347419076
10.468,2.3882542347419076
10.472,2.3869534037658013
10.476,2.3846769495576154
10.48,2.3898802734620403
10.484,2.3986608825507574
10.488,2.4012625445029698
10.492,2.4028885832231026
10.496,2.4087423226155806
10.5,2.4207750091445632
10.504,2.4315068646974396
10.508,2.4344337343936786
10.512,2.4318320724414662
10.516,2.4305312414653599
10.52,2.4315068646974396
10.524,2.4302060337213334
10.528,2.4295556182332803
10.532,2.4279295795131475
10.536,2.4263035407930147
10.54,2.4191489704244304
10.544,2.4061406606633682
10.548,2.396709636086598
10.552,2.3980104670627043
10.556,2.4087423226155806
10.56,2.41069356907974
10.564,2.4132952310319524
10.568,2.4142708542640321
10.572,2.4097179458476603
10.576,2.3993112980388105
10.58,2.3944331818784121
10.584,2.39085589669412
10.588,2.3941079741343856
10.592,2.3986608825507574
10.596,2.404839829687262
10.6,2.4045146219432354
10.604,2.3892298579739872
10.608,2.3570342913153581
10.612,2.3287412175850477
10.616,2.3368714111857116
10.62,2.4123196077998728
10.624,2.5619151700520888
10.628,2.738502975058509
10.632,2.9368796989147086
10.636,3.1547688874125015
10.64,3.3219256678421516
10.644,3.3180231749138329
10.648,3.0721661204297561
10.652,2.6633799861883745
10.656,2.335895787953632
10.66,2.1771944088686723
10.664,2.1485761273943353
10.668,2.1846741869812831
10.672,2.2334553485852666
10.676,2.278659225004958
10.68,2.3193101930082776
10.684,2.3570342913153581
10.688,2.3801240411412437
10.692,2.3863029882777482
10.696,2.3905306889500935
10.7,2.3905306889500935
10.704,2.3876038192538545
10.708,2.3859777805337217
10.712,2.3882542347419076
10.716,2.3950835973664653
10.72,2.4028885832231026
10.724,2.4032137909671292
10.728,2.4038642064551823
10.732,2.4071162838954479
10.736,2.4149212697520852
10.74,2.4246775020728819
10.744,2.4321572801854927
10.748,2.4363849808578379
10.752,2.4435395512264222
10.756,2.4467916286666878
10.76,2.448092459642794
10.764,2.4523201603151392
10.768,2.4575234842195641
10.772,2.45979993842775
10.776,2.4630520158680156
10.78,2.4715074172127061
10.784,2.4809384417894762
10.788,2.4916702973423526
10.792,2.5037029838713352
10.796,2.5115079697279725
10.8,2.5241910717450082
10.804,2.5326464730896987
10.808,2.5378497969941236
10.812,2.5440287441306282
10.816,2.5576874693797436
10.82,2.5755738953012042
10.824,2.5902082437823992
10.828,2.5963871909189038
10.832,2.603541761287488
10.836,2.6132979936082847
10.84,2.6165500710485503
10.844,2.6224038104410283
10.848,2.6279323420894798
10.852,2.6328104582498781
10.856,2.6344364969700109
10.86,2.6279323420894798
10.864,2.6201273562328424
10.868,2.6158996555604972
10.872,2.6142736168403644
10.876,2.6051678000076208
10.88,2.5882569973182399
10.884,2.5745982720691245
10.888,2.5586630926118232
10.892,2.5446791596186813
10.896,2.5352481350419112
10.9,2.5248414872330613
10.904,2.511182761983946
10.908,2.4890686353901401
10.912,2.4672797165403608
10.916,2.4487428751308471
10.92,2.4344337343936786
10.924,2.4149212697520852
10.928,2.4012625445029698
10.932,2.3924819354142528
10.936,2.3840265340695623
10.94,2.3716686397965532
10.944,2.3619124074757565
10.948,2.359310745523544
10.952,2.3589855377795175
10.956,2.3531317983870395
10.96,2.3511805519228801
10.964,2.3550830448511988
10.968,2.3602863687556237
10.972,2.3583351222914644
10.976,2.3567090835713316
10.98,2.3531317983870395
10.984,2.3541074216191191
10.988,2.3602863687556237
10.992,2.3690669778443407
10.996,2.3758963404688984
11,2.3775223791890312
11.004,2.3814248721173499
11.008,2.3804492488852702
11.012,2.3804492488852702
11.016,2.3843517418135889
11.02,2.3876038192538545
11.024,2.3843517418135889
11.028,2.3788232101651374
11.032,2.3801240411412437
11.036,2.3830509108374827
11.04,2.3784980024211109
11.044,2.3716686397965532
11.048,2.3716686397965532
11.052,2.3784980024211109
11.056,2.3794736256531905
11.06,2.3768719637009781
11.064,2.3768719637009781
11.068,2.3765467559569515
11.072,2.3674409391242079
11.076,2.3583351222914644
11.08,2.3502049286908004
11.084,2.356383875827305
11.088,2.3638636539399158
11.092,2.3632132384518627
11.096,2.359310745523544
11.1,2.3609367842436768
11.104,2.3661401081481017
11.108,2.3645140694279689
11.112,2.3648392771719955
11.116,2.3658149004040752
11.12,2.3654896926600486
11.124,2.365164484916022
11.128,2.3667905236361548
11.132,2.3654896926600486
11.136,2.3609367842436768
11.14,2.3550830448511988
11.144,2.3531317983870395
11.148,2.3511805519228801
11.152,2.3508553441788536
11.156,2.356383875827305
11.16,2.3602863687556237
11.164,2.3602863687556237
11.168,2.3583351222914644
11.172,2.3573594990593847
11.176,2.3515057596669067
11.18,2.3485788899706677
11.184,2.3580099145474378
11.188,2.3609367842436768
11.192,2.3661401081481017
11.196,2.3648392771719955
11.2,2.3664653158921283
11.204,2.370367808820447
11.208,2.3758963404688984
11.212,2.3869534037658013
11.216,2.3993112980388105
11.22,2.4103683613357134
11.224,2.4116691923118196
11.228,2.4071162838954479
11.232,2.4028885832231026
11.236,2.4090675303596072
11.24,2.4152464774961118
11.244,2.4162221007281914
11.248,2.4152464774961118
11.252,2.413620438775979
11.256,2.4067910761514213
11.26,2.3986608825507574
11.264,2.3954088051104918
11.268,2.3947583896224387
11.272,2.3889046502299607
11.276,2.379148417909164
11.28,2.3752459249808453
11.284,2.3771971714450046
11.288,2.373294678516686
11.292,2.3684165623562876
11.296,2.3684165623562876
11.3,2.3784980024211109
11.304,2.382075287605403
11.308,2.3758963404688984
11.312,2.3742703017487656
11.316,2.3771971714450046
11.32,2.3680913546122611
11.324,2.3345949569775257
11.328,2.2975212741584983
11.332,2.2984968973905779
11.336,2.3768719637009781
11.34,2.5202885788166896
11.344,2.6809412043658085
11.348,2.8536265164439101
11.352,3.0555805254844017
11.356,3.2429001860436983
11.36,3.3082669425930362
11.364,3.1511916022282094
11.368,2.7921622528228909
11.372,2.4607755616598297
11.376,2.2695534081722144
11.38,2.2188210001040716
11.384,2.2477644893224351
11.388,2.2975212741584983
11.392,2.3381722421618178
11.396,2.3729694707726594
11.4,2.4038642064551823
11.404,2.4175229317042977
11.408,2.4175229317042977
11.412,2.4132952310319524
11.416,2.4178481394483242
11.42,2.4256531253049616
11.424,2.4324824879295193
11.428,2.4370353963458911
11.432,2.439311850554077
11.436,2.4419135125062894
11.44,2.4428891357383691
11.444,2.4503689138509799
11.448,2.4584991074516438
11.452,2.4617511848919094
11.456,2.4591495229396969
11.46,2.4591495229396969
11.464,2.4659788855642546
11.468,2.4669545087963343
11.472,2.4672797165403608
11.476,2.4695561707485467
11.48,2.4731334559328388
11.484,2.4760603256290779
11.488,2.4773611566051841
11.492,2.4763855333731044
11.496,2.4812636495335028
11.5,2.4893938431341667
11.504,2.5017517374071758
11.508,2.5053290225914679
11.512,2.511182761983946
11.516,2.5180121246085037
11.52,2.5310204343695659
11.524,2.5450043673627079
11.528,2.5560614306596108
11.532,2.5654924552363809
11.536,2.5768747262773104
11.54,2.5892326205503196
11.544,2.5993140606151428
11.548,2.6093955006799661
11.552,2.6136232013523113
11.556,2.6152492400724441
11.56,2.6201273562328424
11.564,2.6227290181850549
11.568,2.6308592117857188
11.572,2.629233173065586
11.576,2.6214281872089487
11.58,2.6165500710485503
11.584,2.614598824584391
11.588,2.6093955006799661
11.592,2.603541761287488
11.596,2.6012653070793021
11.6,2.594761152198771
11.604,2.5840292966458946
11.608,2.5667932862124871
11.612,2.551508522243239
11.616,2.5349229272978846
11.62,2.5131340084481053
11.624,2.5040281916153617
11.628,2.4949223747826181
11.632,2.4864669734379277
11.636,2.4747594946529716
11.64,2.4581738997076172
11.644,2.4360597731138114
11.648,2.4152464774961118
11.652,2.3989860902947839
11.656,2.3915063121821731
11.66,2.3960592205985449
11.664,2.428254787257174
11.668,2.4763855333731044
11.672,2.5144348394242115
11.676,2.5310204343695659
11.68,2.5313456421135925
11.684,2.5219146175368223
11.688,2.5027273606392555
11.692,2.47963761081337
11.696,2.4624016003799625
11.7,2.4503689138509799
11.704,2.4399622660421301
11.708,2.4334581111615989
11.712,2.4302060337213334
11.716,2.4237018788408022
11.72,2.4211002168885898
11.724,2.4204498014005367
11.728,2.4184985549363773
11.732,2.4162221007281914
11.736,2.4181733471923508
11.74,2.413620438775979
11.744,2.4045146219432354
11.748,2.4051650374312885
11.752,2.4084171148715541
11.756,2.4100431535916869
11.76,2.4064658684073947
11.764,2.4058154529193416
11.768,2.4067910761514213
11.772,2.4054902451753151
11.776,2.3963844283425715
11.78,2.3941079741343856
11.784,2.4006121290149167
11.788,2.4051650374312885
11.792,2.4022381677350495
11.796,2.3976852593186777
11.8,2.3950835973664653
11.804,2.3892298579739872
11.808,2.3863029882777482
11.812,2.3814248721173499
11.816,2.382075287605403
11.82,2.3807744566292968
11.824,2.3784980024211109
11.828,2.3807744566292968
11.832,2.3843517418135889
11.836,2.3856525727896951
11.84,2.3801240411412437
11.844,2.3713434320525266
11.848,2.3693921855883673
11.852,2.3700426010764204
11.856,2.3706930165644735
11.86,2.3680913546122611
11.864,2.3693921855883673
11.868,2.3736198862607125
11.872,2.3706930165644735
11.876,2.3638636539399158
11.88,2.3645140694279689
11.884,2.373294678516686
11.888,2.3726442630286328
11.892,2.3713434320525266
11.896,2.3719938475405797
11.9,2.3736198862607125
11.904,2.3797988333972171
11.908,2.379148417909164
11.912,2.3824004953494295
11.916,2.3801240411412437
11.92,2.3794736256531905
11.924,2.3742703017487656
11.928,2.3788232101651374
11.932,2.3866281960217748
11.936,2.3905306889500935
11.94,2.3895550657180138
11.944,2.3866281960217748
11.948,2.3837013263255358
11.952,2.3810996643733233
11.956,2.3830509108374827
11.96,2.387929026997881
11.964,2.39085589669412
11.968,2.3960592205985449
11.972,2.3993112980388105
11.976,2.3976852593186777
11.98,2.4006121290149167
11.984,2.4032137909671292
11.988,2.4067910761514213
11.992,2.41069356907974
11.996,2.4214254246326163
12,2.4302060337213334
12.004,2.4308564492093865
12.008,2.4230514633527491
12.012,2.4240270865848288
12.016,2.4328076956735458
12.02,2.4354093576257583
12.024,2.4272791640250944
12.028,2.4188237626804039
12.032,2.4126448155438993
12.036,2.4087423226155806
12.04,2.4028885832231026
12.044,2.3976852593186777
12.048,2.3950835973664653
12.052,2.3872786115098279
12.056,2.3814248721173499
12.06,2.3765467559569515
12.064,2.3749207172368187
12.068,2.3804492488852702
12.072,2.3895550657180138
12.076,2.3957340128545184
12.08,2.4025633754790761
12.084,2.4035389987111557
12.088,2.3993112980388105
12.092,2.3980104670627043
12.096,2.393782766390359
12.1,2.373294678516686
12.104,2.3394730731379241
12.108,2.3232126859365962
12.112,2.3667905236361548
12.116,2.4890686353901401
12.12,2.6633799861883745
12.124,2.8490736080275383
12.128,3.0682636275014374
12.132,3.2858276082552038
12.136,3.4081057200091891
12.14,3.2907057244156022
12.144,2.9271234665939119
12.148,2.5134592161921319
12.152,2.2568703061551787
12.156,2.1537794512987603
12.16,2.1498769583704416
12.164,2.1976824967423454
12.168,2.2555694751790725
12.172,2.3004481438547373
12.176,2.3329689182573929
12.18,2.3518309674109332
12.184,2.3602863687556237
12.188,2.3664653158921283
12.192,2.3677661468682345
12.196,2.3684165623562876
12.2,2.3758963404688984
12.204,2.3840265340695623
12.208,2.3905306889500935
12.212,2.3931323509023059
12.216,2.3973600515746512
12.22,2.4028885832231026
12.224,2.4028885832231026
12.228,2.4006121290149167
12.232,2.4006121290149167
12.236,2.399636505782837
12.24,2.4002869212708902
12.244,2.4080919071275275
12.248,2.4197993859124836
12.252,2.425327917560935
12.256,2.4263035407930147
12.26,2.4295556182332803
12.264,2.4370353963458911
12.268,2.4542714067792986
12.272,2.4708570017246529
12.276,2.4750847023969982
12.28,2.4763855333731044
12.284,2.4809384417894762
12.288,2.4893938431341667
12.292,2.4984996599669103
12.296,2.5098819310078397
12.3,2.5206137865607161
12.304,2.5300448111374862
12.308,2.5401262512023095
12.312,2.5492320680350531
12.316,2.5612647545640357
12.32,2.5781755572534166
12.324,2.5915090747585054
12.328,2.5996392683591694
12.332,2.6074442542158067
12.336,2.6181761097686831
12.34,2.6253306801372673
12.344,2.6246802646492142
12.348,2.6224038104410283
12.352,2.6207777717208955
12.356,2.620452563976869
12.36,2.61752569428063
12.364,2.6181761097686831
12.368,2.6178509020246565
12.372,2.6136232013523113
12.376,2.6012653070793021
12.38,2.5928099057346117
12.384,2.5876065818301868
12.388,2.5778503495093901
12.392,2.5615899623080622
12.396,2.5453295751067344
12.4,2.5336220963217784
12.404,2.5264675259531941
12.408,2.5167112936323974
12.412,2.5134592161921319
12.416,2.514109631680185
12.42,2.5030525683832821
12.424,2.4802880263014231
12.428,2.4523201603151392
12.432,2.4269539562810678
12.436,2.4090675303596072
12.44,2.3921567276702262
12.444,2.3719938475405797
12.448,2.3583351222914644
12.452,2.3576847068034112
12.456,2.3602863687556237
12.46,2.3625628229638096
12.464,2.3599611610115971
12.468,2.3589855377795175
12.472,2.3570342913153581
12.476,2.3469528512505349
12.48,2.3423999428341631
12.484,2.3456520202744287
12.488,2.3459772280184552
12.492,2.3440259815542959
12.496,2.3430503583222162
12.5,2.3469528512505349
12.504,2.3463024357624818
12.508,2.3404486963700037
12.512,2.3433755660662428
12.516,2.3485788899706677
12.52,2.3524813828989863
12.524,2.3495545132027473
12.528,2.3453268125304021
12.532,2.3479284744826145
12.536,2.3560586680832785
12.54,2.3619124074757565
12.544,2.3635384461958893
12.548,2.3635384461958893
12.552,2.3615871997317299
12.556,2.3567090835713316
12.56,2.3524813828989863
12.564,2.3541074216191191
12.568,2.3596359532675706
12.572,2.3570342913153581
12.576,2.3482536822266411
12.58,2.3427251505781896
12.584,2.3430503583222162
12.588,2.3433755660662428
12.592,2.3437007738102693
12.596,2.3437007738102693
12.6,2.350530136434827
12.604,2.3745955094927922
12.608,2.3853273650456686
12.612,2.3872786115098279
12.616,2.3801240411412437
12.62,2.3713434320525266
12.624,2.3580099145474378
12.628,2.3502049286908004
12.632,2.3420747350901365
12.636,2.3355705802096054
12.64,2.3319932950253133
12.644,2.3349201647215523
12.648,2.3459772280184552
12.652,2.3570342913153581
12.656,2.3560586680832785
12.66,2.3537822138750926
12.664,2.3511805519228801
12.668,2.3511805519228801
12.672,2.350530136434827
12.676,2.3482536822266411
12.68,2.3479284744826145
12.684,2.3469528512505349
12.688,2.3437007738102693
12.692,2.3433755660662428
12.696,2.3498797209467739
12.7,2.359310745523544
12.704,2.3638636539399158
12.708,2.3602863687556237
12.712,2.3596359532675706
12.716,2.359310745523544
12.72,2.3602863687556237
12.724,2.3583351222914644
12.728,2.3576847068034112
12.732,2.3635384461958893
12.736,2.3706930165644735
12.74,2.3700426010764204
12.744,2.3729694707726594
12.748,2.3788232101651374
12.752,2.3797988333972171
12.756,2.3810996643733233
12.76,2.3801240411412437
12.764,2.3784980024211109
12.768,2.3784980024211109
12.772,2.3755711327248719
12.776,2.3684165623562876
12.78,2.3612619919877034
12.784,2.3606115764996503
12.788,2.3667905236361548
12.792,2.3726442630286328
12.796,2.3801240411412437
12.8,2.3882542347419076
12.804,2.3918315199261997
12.808,2.3918315199261997
12.812,2.3960592205985449
12.816,2.407766699383501
12.82,2.4191489704244304
12.824,2.416547308472218
12.828,2.4126448155438993
12.832,2.4152464774961118
12.836,2.422401047864696
12.84,2.4211002168885898
12.844,2.4188237626804039
12.848,2.4207750091445632
12.852,2.4230514633527491
12.856,2.4201245936565101
12.86,2.4155716852401383
12.864,2.4110187768237665
12.868,2.4038642064551823
12.872,2.3918315199261997
12.876,2.3817500798613764
12.88,2.3758963404688984
12.884,2.3827257030934561
12.888,2.3950835973664653
12.892,2.396709636086598
12.896,2.3934575586463325
12.9,2.3915063121821731
12.904,2.39085589669412
12.908,2.3869534037658013
12.912,2.3775223791890312
12.916,2.356383875827305
12.92,2.3264647633768618
12.924,2.3089035451994278
12.928,2.3404486963700037
12.932,2.4441899667144753
12.936,2.603541761287488
12.94,2.7742758269014303
12.944,2.973953381733736
12.948,3.1804602991905995
12.952,3.3281046149786562
12.956,3.2676159745897166
12.96,2.968099642341258
12.964,2.5840292966458946
12.968,2.3209362317284103
12.972,2.1986581199744251
12.976,2.1814221095410176
12.98,2.2136176761996467
12.984,2.2623988378036302
12.988,2.3050010522711091
12.992,2.3427251505781896
12.996,2.3667905236361548
13,2.3742703017487656
13.004,2.3713434320525266
13.008,2.3648392771719955
13.012,2.3671157313801814
13.016,2.376221548212925
13.02,2.3824004953494295
13.024,2.3797988333972171
13.028,2.3801240411412437
13.032,2.3830509108374827
13.036,2.3895550657180138
13.04,2.3911811044381466
13.044,2.3947583896224387
13.048,2.3963844283425715
13.052,2.3993112980388105
13.056,2.4015877522469964
13.06,2.4103683613357134
13.064,2.4207750091445632
13.068,2.4298808259773068
13.072,2.4344337343936786
13.076,2.434108526649652
13.08,2.4344337343936786
13.084,2.4363849808578379
13.088,2.4363849808578379
13.092,2.4386614350660238
13.096,2.4506941215950064
13.1,2.4698813784925733
13.104,2.4851661424618214
13.108,2.494271959294565
13.112,2.5011013219191227
13.116,2.5092315155197866
13.12,2.5183373323525302
13.124,2.5209389943047427
13.128,2.5277683569293004
13.132,2.5414270821784157
13.136,2.563216001028195
13.14,2.5778503495093901
13.144,2.5902082437823992
13.148,2.6022409303113818
13.152,2.6201273562328424
13.156,2.629233173065586
13.16,2.626306303369347
13.164,2.6172004865366034
13.168,2.6168752787925769
13.172,2.6168752787925769
13.176,2.6168752787925769
13.18,2.6142736168403644
13.184,2.6038669690315146
13.188,2.5905334515264258
13.192,2.5762243107892573
13.196,2.5641916242602747
13.2,2.5547605996835046
13.204,2.5450043673627079
13.208,2.525817110465141
13.212,2.5063046458235476
13.216,2.4900442586222198
13.22,2.4838653114857152
13.224,2.4702065862365998
13.228,2.4490680828748737
13.232,2.4334581111615989
13.236,2.4233766710967757
13.24,2.4097179458476603
13.244,2.3963844283425715
13.248,2.3876038192538545
13.252,2.3837013263255358
13.256,2.3752459249808453
13.26,2.3648392771719955
13.264,2.3570342913153581
13.268,2.3537822138750926
13.272,2.350530136434827
13.276,2.3492293054587208
13.28,2.3459772280184552
13.284,2.344676397042349
13.288,2.3482536822266411
13.292,2.3440259815542959
13.296,2.3362209956976585
13.3,2.3323185027693398
13.304,2.3332941260014195
13.308,2.3404486963700037
13.312,2.3557334603392519
13.316,2.3680913546122611
13.32,2.370367808820447
13.324,2.3645140694279689
13.328,2.3589855377795175
13.332,2.3619124074757565
13.336,2.362237615219783
13.34,2.3599611610115971
13.344,2.356383875827305
13.348,2.3606115764996503
13.352,2.3654896926600486
13.356,2.3658149004040752
13.36,2.365164484916022
13.364,2.3690669778443407
13.368,2.3706930165644735
13.372,2.3648392771719955
13.376,2.3583351222914644
13.38,2.3576847068034112
13.384,2.3583351222914644
13.388,2.3544326293631457
13.392,2.3498797209467739
13.396,2.3450016047863755
13.4,2.3433755660662428
13.404,2.3437007738102693
13.408,2.3420747350901365
13.412,2.3482536822266411
13.416,2.3554082525952253
13.42,2.3596359532675706
13.424,2.3615871997317299
13.428,2.362237615219783
13.432,2.3635384461958893
13.436,2.3619124074757565
13.44,2.356383875827305
13.444,2.3518309674109332
13.448,2.3508553441788536
13.452,2.3515057596669067
13.456,2.3518309674109332
13.46,2.3502049286908004
13.464,2.3479284744826145
13.468,2.3502049286908004
13.472,2.3544326293631457
13.476,2.3589855377795175
13.48,2.3599611610115971
13.484,2.3583351222914644
13.488,2.356383875827305
13.492,2.3583351222914644
13.496,2.3690669778443407
13.5,2.3846769495576154
13.504,2.3898802734620403
13.508,2.39085589669412
13.512,2.3885794424859341
13.516,2.3824004953494295
13.52,2.3810996643733233
13.524,2.3801240411412437
13.528,2.3856525727896951
13.532,2.3921567276702262
13.536,2.3989860902947839
13.54,2.3970348438306246
13.544,2.3889046502299607
13.548,2.3872786115098279
13.552,2.3934575586463325
13.556,2.396709636086598
13.56,2.3973600515746512
13.564,2.4002869212708902
13.568,2.3989860902947839
13.572,2.3924819354142528
13.576,2.3817500798613764
13.58,2.3794736256531905
13.584,2.3941079741343856
13.588,2.4032137909671292
13.592,2.4022381677350495
13.596,2.4028885832231026
13.6,2.4025633754790761
13.604,2.4025633754790761
13.608,2.4074414916394744
13.612,2.4110187768237665
13.616,2.4110187768237665
13.62,2.4103683613357134
13.624,2.4045146219432354
13.628,2.4038642064551823
13.632,2.407766699383501
13.636,2.4152464774961118
13.64,2.4178481394483242
13.644,2.4191489704244304
13.648,2.428254787257174
13.652,2.4370353963458911
13.656,2.4454907976905815
13.66,2.4484176673868205
13.664,2.4487428751308471
13.668,2.4571982764755376
13.672,2.4705317939806264
13.676,2.468580547516467
13.68,2.4588243151956704
13.684,2.453946199035272
13.688,2.4542714067792986
13.692,2.4523201603151392
13.696,2.4461412131786346
13.7,2.4438647589704487
13.704,2.442238720250316
13.708,2.4331329034175724
13.712,2.4175229317042977
13.716,2.41069356907974
13.72,2.4132952310319524
13.724,2.4158968929841649
13.728,2.4149212697520852
13.732,2.4123196077998728
13.736,2.4132952310319524
13.74,2.4184985549363773
13.744,2.4230514633527491
13.748,2.4230514633527491
13.752,2.4162221007281914
13.756,2.3970348438306246
13.76,2.3645140694279689
13.764,2.3420747350901365
13.768,2.3612619919877034
13.772,2.4438647589704487
13.776,2.6028913457994349
13.78,2.781105189525988
13.784,2.9817583675903734
13.788,3.2120054503611755
13.792,3.4129838361695874
13.796,3.4376996247156058
13.8,3.1944442321837414
13.804,2.7693977107410319
13.808,2.4217506323766429
13.812,2.2484149048104882
13.816,2.206788313575089
13.82,2.2315041021211073
13.824,2.2799600559810642
13.828,2.3228874781925697
13.832,2.3580099145474378
13.836,2.382075287605403
13.84,2.3915063121821731
13.844,2.3941079741343856
13.848,2.396709636086598
13.852,2.4019129599910229
13.856,2.4045146219432354
13.86,2.4025633754790761
13.864,2.4080919071275275
13.868,2.4158968929841649
13.872,2.4233766710967757
13.876,2.4318320724414662
13.88,2.4396370582981035
13.884,2.4428891357383691
13.888,2.4415883047622629
13.892,2.4406126815301832
13.896,2.448092459642794
13.9,2.4617511848919094
13.904,2.4672797165403608
13.908,2.4646780545881484
13.912,2.4679301320284139
13.916,2.4708570017246529
13.92,2.4741090791649185
13.924,2.4783367798372637
13.928,2.4867921811819542
13.932,2.494271959294565
13.936,2.508255892287707
13.94,2.5183373323525302
13.944,2.5209389943047427
13.948,2.5319960576016456
13.952,2.5430531208985485
13.956,2.5528093532193452
13.96,2.5648420397483278
13.964,2.5807772192056291
13.968,2.5902082437823992
13.972,2.5950863599427976
13.976,2.5996392683591694
13.98,2.6139484090963379
13.984,2.6354121202020906
13.988,2.6545993770996574
13.992,2.6643556094204541
13.996,2.6689085178368259
14,2.6789899579016492
14.004,2.6880957747343928
14.008,2.6858193205262069
14.012,2.68646973601426
14.016,2.6848436972941272
14.02,2.6773639191815164
14.024,2.6682581023487728
14.028,2.6588270777720027
14.032,2.6552497925877105
14.036,2.6510220919153653
14.04,2.6389894053863827
14.044,2.6220786026970018
14.048,2.6048425922635943
14.052,2.5843545043899212
14.056,2.5667932862124871
14.06,2.548581652547
14.064,2.5381750047381502
14.068,2.519963371072663
14.072,2.4981744522228837
14.076,2.4754099101410247
14.08,2.4601251461717766
14.084,2.4490680828748737
14.088,2.4376858118339442
14.092,2.4207750091445632
14.096,2.4097179458476603
14.1,2.4032137909671292
14.104,2.3934575586463325
14.108,2.3830509108374827
14.112,2.3837013263255358
14.116,2.3911811044381466
14.12,2.3941079741343856
14.124,2.3863029882777482
14.128,2.3775223791890312
14.132,2.3749207172368187
14.136,2.3765467559569515
14.14,2.3830509108374827
14.144,2.3895550657180138
14.148,2.3950835973664653
14.152,2.4028885832231026
14.156,2.4025633754790761
14.16,2.396709636086598
14.164,2.3950835973664653
14.168,2.399636505782837
14.172,2.4032137909671292
14.176,2.3983356748067308
14.18,2.3986608825507574
14.184,2.4041894141992088
14.188,2.4064658684073947
14.192,2.4041894141992088
14.196,2.4022381677350495
14.2,2.4097179458476603
14.204,2.4220758401206695
14.208,2.4204498014005367
14.212,2.4178481394483242
14.216,2.4139456465200055
14.22,2.4103683613357134
14.224,2.4064658684073947
14.228,2.4019129599910229
14.232,2.3993112980388105
14.236,2.396709636086598
14.24,2.3931323509023059
14.244,2.3918315199261997
14.248,2.3941079741343856
14.252,2.3980104670627043
14.256,2.396709636086598
14.26,2.3957340128545184
14.264,2.3950835973664653
14.268,2.3918315199261997
14.272,2.3866281960217748
14.276,2.3745955094927922
14.28,2.3710182243085001
14.284,2.3726442630286328
14.288,2.3781727946770843
14.292,2.3801240411412437
14.296,2.3775223791890312
14.3,2.3749207172368187
14.304,2.3765467559569515
14.308,2.3742703017487656
14.312,2.370367808820447
14.316,2.3690669778443407
14.32,2.3664653158921283
14.324,2.3583351222914644
14.328,2.3609367842436768
14.332,2.3788232101651374
14.336,2.3924819354142528
14.34,2.3941079741343856
14.344,2.3892298579739872
14.348,2.3846769495576154
14.352,2.3853273650456686
14.356,2.3830509108374827
14.36,2.3807744566292968
14.364,2.3853273650456686
14.368,2.3892298579739872
14.372,2.3882542347419076
14.376,2.3856525727896951
14.38,2.3797988333972171
14.384,2.3794736256531905
14.388,2.3824004953494295
14.392,2.3840265340695623
14.396,2.3863029882777482
14.4,2.3869534037658013
14.404,2.3895550657180138
14.408,2.3889046502299607
14.412,2.3869534037658013
14.416,2.3924819354142528
14.42,2.3993112980388105
14.424,2.3993112980388105
14.428,2.3950835973664653
14.432,2.3898802734620403
14.436,2.3918315199261997
14.44,2.4028885832231026
14.444,2.4045146219432354
14.448,2.4045146219432354
14.452,2.4093927381036337
14.456,2.4168725162162445
14.46,2.4240270865848288
14.464,2.4289052027452271
14.468,2.4337833189056255
14.472,2.4259783330489881
14.476,2.4181733471923508
14.48,2.4201245936565101
14.484,2.428254787257174
14.488,2.4289052027452271
14.492,2.4175229317042977
14.496,2.413620438775979
14.5,2.4145960620080587
14.504,2.4162221007281914
14.508,2.4119944000558462
14.512,2.4019129599910229
14.516,2.3931323509023059
14.52,2.3866281960217748
14.524,2.3856525727896951
14.528,2.3911811044381466
14.532,2.3976852593186777
14.536,2.4054902451753151
14.54,2.4071162838954479
14.544,2.3986608825507574
14.548,2.3918315199261997
14.552,2.3918315199261997
14.556,2.3905306889500935
14.56,2.3827257030934561
14.564,2.3658149004040752
14.568,2.3394730731379241
14.572,2.3284160098410212
14.576,2.3667905236361548
14.58,2.4832148959976621
14.584,2.6493960531952325
14.588,2.8279351046658121
14.592,3.0367184763308614
14.596,3.2477783022040967
14.6,3.3749345301184803
14.604,3.2682663900777698
14.608,2.9180176497611683
14.612,2.5196381633286364
14.616,2.2724802778684534
14.62,2.1788204475888051
14.624,2.1768692011246458
14.628,2.2158941304078326
14.632,2.2643500842677895
14.636,2.3033750135509763
14.64,2.3342697492334992
14.644,2.356383875827305
14.648,2.3726442630286328
14.652,2.3827257030934561
14.656,2.387929026997881
14.66,2.3905306889500935
14.664,2.3928071431582794
14.668,2.3993112980388105
14.672,2.4071162838954479
14.676,2.4097179458476603
14.68,2.4123196077998728
14.684,2.4149212697520852
14.688,2.4191489704244304
14.692,2.4181733471923508
14.696,2.4227262556087226
14.7,2.4305312414653599
14.704,2.4370353963458911
14.708,2.4363849808578379
14.712,2.4357345653697848
14.716,2.4396370582981035
14.72,2.4461412131786346
14.724,2.4484176673868205
14.728,2.456873068731511
14.732,2.4672797165403608
14.736,2.4763855333731044
14.74,2.4776863643492106
14.744,2.4757351178850513
14.748,2.4806132340454496
14.752,2.4998004909430165
14.756,2.522890240768902
14.76,2.5306952266255394
14.764,2.5355733427859377
14.768,2.5450043673627079
14.772,2.5570370538916904
14.776,2.5680941171885934
14.78,2.5817528424377088
14.784,2.5983384373830631
14.788,2.6152492400724441
14.792,2.6295583808096126
14.796,2.6363877434341703
14.8,2.6409406518505421
14.804,2.6464691834989935
14.808,2.6458187680109404
14.812,2.6432171060587279
14.816,2.6415910673385952
14.82,2.6422414828266483
14.824,2.6419162750826217
14.828,2.6370381589222234
14.832,2.6308592117857188
14.836,2.6266315111133736
14.84,2.6172004865366034
14.844,2.6077694619598333
14.848,2.5986636451270897
14.852,2.5843545043899212
14.856,2.560289131331956
14.86,2.5349229272978846
14.864,2.5134592161921319
14.868,2.5046786071034148
14.872,2.4890686353901401
14.876,2.4663040933082812
14.88,2.4409378892742097
14.884,2.4259783330489881
14.888,2.4142708542640321
14.892,2.3999617135268636
14.896,2.3863029882777482
14.9,2.3768719637009781
14.904,2.3700426010764204
14.908,2.3638636539399158
14.912,2.356383875827305
14.916,2.3541074216191191
14.92,2.3567090835713316
14.924,2.3576847068034112
14.928,2.3576847068034112
14.932,2.3589855377795175
14.936,2.356383875827305
14.94,2.3550830448511988
14.944,2.3495545132027473
14.948,2.3518309674109332
14.952,2.3557334603392519
14.956,2.353457006131066
14.96,2.3466276435065083
14.964,2.3511805519228801
14.968,2.3589855377795175
14.972,2.3706930165644735
14.976,2.3726442630286328
14.98,2.3706930165644735
14.984,2.3684165623562876
14.988,2.3671157313801814
14.992,2.3700426010764204
14.996,2.3719938475405797
15,2.376221548212925
15.004,2.3778475869330578
15.008,2.3814248721173499
15.012,2.3804492488852702
15.016,2.3827257030934561
15.02,2.3853273650456686
15.024,2.3869534037658013
15.028,2.3827257030934561
15.032,2.3830509108374827
15.036,2.385002157301642
15.04,2.3833761185815092
15.044,2.3752459249808453
15.048,2.3713434320525266
15.052,2.3690669778443407
15.056,2.3736198862607125
15.06,2.3710182243085001
15.064,2.3674409391242079
15.068,2.3664653158921283
15.072,2.3680913546122611
15.076,2.362237615219783
15.08,2.3632132384518627
15.084,2.3667905236361548
15.088,2.3690669778443407
15.092,2.3658149004040752
15.096,2.3635384461958893
15.1,2.3684165623562876
15.104,2.3690669778443407
15.108,2.3654896926600486
15.112,2.365164484916022
15.116,2.3602863687556237
15.12,2.3544326293631457
15.124,2.3531317983870395
15.128,2.3606115764996503
15.132,2.362237615219783
15.136,2.362237615219783
15.14,2.3554082525952253
15.144,2.3469528512505349
15.148,2.3489040977146942
15.152,2.3658149004040752
15.156,2.3749207172368187
15.16,2.3690669778443407
15.164,2.3648392771719955
15.168,2.3609367842436768
15.172,2.3606115764996503
15.176,2.3641888616839424
15.18,2.373294678516686
15.184,2.3784980024211109
15.188,2.3765467559569515
15.192,2.3706930165644735
15.196,2.373294678516686
15.2,2.3765467559569515
15.204,2.3765467559569515
15.208,2.3758963404688984
15.212,2.3768719637009781
15.216,2.3810996643733233
15.22,2.3827257030934561
15.224,2.3781727946770843
15.228,2.3775223791890312
15.232,2.3810996643733233
15.236,2.382075287605403
15.24,2.3827257030934561
15.244,2.3863029882777482
15.248,2.3898802734620403
15.252,2.396709636086598
15.256,2.4025633754790761
15.26,2.4097179458476603
15.264,2.4201245936565101
15.268,2.4347589421377052
15.272,2.4425639279943425
15.276,2.4370353963458911
15.28,2.4279295795131475
15.284,2.4279295795131475
15.288,2.4292304104892537
15.292,2.425327917560935
15.296,2.4214254246326163
15.3,2.4175229317042977
15.304,2.4162221007281914
15.308,2.4142708542640321
15.312,2.4149212697520852
15.316,2.4145960620080587
15.32,2.4087423226155806
15.324,2.3954088051104918
15.328,2.3804492488852702
15.332,2.3797988333972171
15.336,2.3856525727896951
15.34,2.3950835973664653
15.344,2.3986608825507574
15.348,2.4035389987111557
15.352,2.4025633754790761
15.356,2.4015877522469964
15.36,2.3980104670627043
15.364,2.3941079741343856
15.368,2.3810996643733233
15.372,2.359310745523544
15.376,2.3300420485611539
15.38,2.3290664253290743
15.384,2.3941079741343856
15.388,2.5300448111374862
15.392,2.6858193205262069
15.396,2.8594802558363881
15.4,3.0672880042693578
15.404,3.2640386894054245
15.408,3.3453406254120637
15.412,3.1934686089516617
15.416,2.8363905060105026
15.42,2.4841905192297418
15.424,2.2692282004281878
15.428,2.1911783418618143
15.432,2.2045118593669031
15.436,2.2545938519469928
15.44,2.3007733515987638
15.444,2.3342697492334992
15.448,2.3576847068034112
15.452,2.3713434320525266
15.456,2.3827257030934561
15.46,2.3911811044381466
15.464,2.3915063121821731
15.468,2.3924819354142528
15.472,2.3957340128545184
15.476,2.3976852593186777
15.48,2.4015877522469964
15.484,2.4054902451753151
15.488,2.407766699383501
15.492,2.4132952310319524
15.496,2.4181733471923508
15.5,2.4230514633527491
15.504,2.4292304104892537
15.508,2.428254787257174
15.512,2.4279295795131475
15.516,2.4324824879295193
15.52,2.4389866428100504
15.524,2.4409378892742097
15.528,2.4441899667144753
15.532,2.4493932906189002
15.536,2.45979993842775
15.54,2.4728082481888123
15.544,2.4819140650215559
15.548,2.4906946741102729
15.552,2.5027273606392555
15.556,2.5056542303354945
15.56,2.5089063077757601
15.564,2.5128088007040787
15.568,2.5225650330248754
15.572,2.5401262512023095
15.576,2.5589883003558498
15.58,2.5723218178609386
15.584,2.5791511804854963
15.588,2.5892326205503196
15.592,2.6051678000076208
15.596,2.620452563976869
15.6,2.6357373279461171
15.604,2.6484204299631529
15.608,2.6572010390518699
15.612,2.6646808171644807
15.616,2.6676076868607197
15.62,2.6604531164921355
15.624,2.6572010390518699
15.628,2.6510220919153653
15.632,2.6477700144750997
15.636,2.6454935602669138
15.64,2.6399650286184624
15.644,2.6344364969700109
15.648,2.6324852505058516
15.652,2.6259810956253204
15.656,2.614598824584391
15.66,2.59768802189501
15.664,2.583053673413815
15.668,2.5641916242602747
15.672,2.542727913154522
15.676,2.5219146175368223
15.68,2.5017517374071758
15.684,2.4793124030693434
15.688,2.4604503539158031
15.692,2.4402874737861566
15.696,2.4289052027452271
15.7,2.4214254246326163
15.704,2.4103683613357134
15.708,2.3983356748067308
15.712,2.3882542347419076
15.716,2.382075287605403
15.72,2.3784980024211109
15.724,2.3697173933323938
15.728,2.3589855377795175
15.732,2.3521561751549598
15.736,2.3567090835713316
15.74,2.3635384461958893
15.744,2.3674409391242079
15.748,2.3664653158921283
15.752,2.3687417701003142
15.756,2.3736198862607125
15.76,2.3742703017487656
15.764,2.3768719637009781
15.768,2.3775223791890312
15.772,2.3804492488852702
15.776,2.3830509108374827
15.78,2.3843517418135889
15.784,2.3869534037658013
15.788,2.3892298579739872
15.792,2.3885794424859341
15.796,2.3889046502299607
15.8,2.3863029882777482
15.804,2.3840265340695623
15.808,2.3898802734620403
15.812,2.3944331818784121
15.816,2.3986608825507574
15.82,2.3970348438306246
15.824,2.39085589669412
15.828,2.3863029882777482
15.832,2.385002157301642
15.836,2.385002157301642
15.84,2.3827257030934561
15.844,2.382075287605403
15.848,2.3843517418135889
15.852,2.3840265340695623
15.856,2.3788232101651374
15.86,2.365164484916022
15.864,2.3602863687556237
15.868,2.3641888616839424
15.872,2.3667905236361548
15.876,2.3671157313801814
15.88,2.3667905236361548
15.884,2.3687417701003142
15.888,2.3752459249808453
15.892,2.3726442630286328
15.896,2.365164484916022
15.9,2.3596359532675706
15.904,2.3602863687556237
15.908,2.3557334603392519
15.912,2.353457006131066
15.916,2.3641888616839424
15.92,2.3706930165644735
15.924,2.3736198862607125
15.928,2.3693921855883673
15.932,2.3677661468682345
15.936,2.3697173933323938
15.94,2.3697173933323938
15.944,2.3654896926600486
15.948,2.3635384461958893
15.952,2.3667905236361548
15.956,2.3739450940047391
15.96,2.3781727946770843
15.964,2.376221548212925
15.968,2.376221548212925
15.972,2.373294678516686
15.976,2.3687417701003142
15.98,2.3687417701003142
15.984,2.3755711327248719
15.988,2.3814248721173499
15.992,2.3817500798613764
15.996,2.3807744566292968
16,2.382075287605403
16.004,2.385002157301642
16.008,2.3840265340695623
16.012,2.379148417909164
16.016,2.3719938475405797
16.02,2.3749207172368187
16.024,2.3837013263255358
16.028,2.3918315199261997
16.032,2.4019129599910229
16.036,2.4080919071275275
16.04,2.4149212697520852
16.044,2.4184985549363773
16.048,2.4201245936565101
16.052,2.4197993859124836
16.056,2.4181733471923508
16.06,2.4201245936565101
16.064,2.4246775020728819
16.068,2.4256531253049616
16.072,2.4227262556087226
16.076,2.4175229317042977
16.08,2.4110187768237665
16.084,2.4113439845677931
16.088,2.4080919071275275
16.092,2.3993112980388105
16.096,2.3876038192538545
16.1,2.3837013263255358
16.104,2.385002157301642
16.108,2.3775223791890312
16.112,2.3719938475405797
16.116,2.3752459249808453
16.12,2.3898802734620403
16.124,2.3973600515746512
16.128,2.3921567276702262
16.132,2.387929026997881
16.136,2.3837013263255358
16.14,2.376221548212925
16.144,2.3615871997317299
16.148,2.3404486963700037
16.152,2.3316680872812867
16.156,2.3723190552846063
16.16,2.4871173889259808
16.164,2.6611035319801886
16.168,2.8520004777237773
16.172,3.0630603035970125
16.176,3.2708680520299822
16.18,3.3918453328078613
16.184,3.2855024005111773
16.188,2.9212697272014339
16.192,2.4880930121580604
16.196,2.2240243240084965
16.2,2.1300392859848216
16.204,2.1401207260496449
16.208,2.1879262644215487
16.212,2.244187204138143
16.216,2.2971960664144717
16.22,2.3423999428341631
16.224,2.3768719637009781
16.228,2.3898802734620403
16.232,2.3944331818784121
16.236,2.3983356748067308
16.24,2.4012625445029698
16.244,2.4009373367589433
16.248,2.4032137909671292
16.252,2.4080919071275275
16.256,2.413620438775979
16.26,2.4152464774961118
16.264,2.4175229317042977
16.268,2.4230514633527491
16.272,2.4263035407930147
16.276,2.428254787257174
16.28,2.4315068646974396
16.284,2.4315068646974396
16.288,2.4344337343936786
16.292,2.4415883047622629
16.296,2.4497184983629268
16.3,2.4669545087963343
16.304,2.476710741117131
16.308,2.4806132340454496
16.312,2.4851661424618214
16.316,2.4923207128304057
16.32,2.4955727902706712
16.324,2.5014265296631493
16.328,2.5050038148474414
16.332,2.5121583852160256
16.336,2.5212642020487692
16.34,2.5293943956494331
16.344,2.5381750047381502
16.348,2.5528093532193452
16.352,2.5687445326766465
16.356,2.5876065818301868
16.36,2.6012653070793021
16.364,2.6142736168403644
16.368,2.6305340040416922
16.372,2.6419162750826217
16.376,2.6438675215467811
16.38,2.6503716764273122
16.384,2.6659816481405869
16.388,2.6793151656456757
16.392,2.6845184895501006
16.396,2.6841932818060741
16.4,2.6890713979664724
16.404,2.6897218134545255
16.408,2.6812664121098351
16.412,2.6698841410689056
16.416,2.6630547784443479
16.42,2.6487456377071794
16.424,2.632160042761825
16.428,2.611671954888152
16.432,2.5908586592704523
16.436,2.5697201559087262
16.44,2.5440287441306282
16.444,2.5202885788166896
16.448,2.4988248677109368
16.452,2.4815888572775293
16.456,2.4663040933082812
16.46,2.439311850554077
16.464,2.4168725162162445
16.468,2.4009373367589433
16.472,2.3837013263255358
16.476,2.3726442630286328
16.48,2.3641888616839424
16.484,2.3576847068034112
16.488,2.3498797209467739
16.492,2.3397982808819506
16.496,2.3323185027693398
16.5,2.3300420485611539
16.504,2.327765594352968
16.508,2.3251639324007556
16.512,2.3258143478888087
16.516,2.3284160098410212
16.52,2.3352453724655788
16.524,2.3430503583222162
16.528,2.3459772280184552
16.532,2.3498797209467739
16.536,2.3511805519228801
16.54,2.3492293054587208
16.544,2.3450016047863755
16.548,2.3456520202744287
16.552,2.356383875827305
16.556,2.3638636539399158
16.56,2.3570342913153581
16.564,2.3495545132027473
16.568,2.3557334603392519
16.572,2.3612619919877034
16.576,2.3573594990593847
16.58,2.3550830448511988
16.584,2.3586603300354909
16.588,2.365164484916022
16.592,2.3674409391242079
16.596,2.3628880307078362
16.6,2.3602863687556237
16.604,2.3583351222914644
16.608,2.3541074216191191
16.612,2.3492293054587208
16.616,2.3511805519228801
16.62,2.3524813828989863
16.624,2.3502049286908004
16.628,2.3482536822266411
16.632,2.344676397042349
16.636,2.3371966189297382
16.64,2.3352453724655788
16.644,2.3342697492334992
16.648,2.3362209956976585
16.652,2.3355705802096054
16.656,2.330692464049207
16.66,2.3264647633768618
16.664,2.3336193337454461
16.668,2.3511805519228801
16.672,2.3580099145474378
16.676,2.3485788899706677
16.68,2.3391478653938975
16.684,2.3365462034416851
16.688,2.3381722421618178
16.692,2.3384974499058444
16.696,2.3368714111857116
16.7,2.3401234886259772
16.704,2.3420747350901365
16.708,2.3362209956976585
16.712,2.3280908020969946
16.716,2.3271151788649149
16.72,2.3352453724655788
16.724,2.3355705802096054
16.728,2.3310176717932336
16.732,2.3323185027693398
16.736,2.3443511892983224
16.74,2.3531317983870395
16.744,2.3518309674109332
16.748,2.3502049286908004
16.752,2.3528065906430129
16.756,2.3528065906430129
16.76,2.3515057596669067
16.764,2.3531317983870395
16.768,2.3615871997317299
16.772,2.3677661468682345
16.776,2.3687417701003142
16.78,2.3723190552846063
16.784,2.379148417909164
16.788,2.3889046502299607
16.792,2.3976852593186777
16.796,2.4028885832231026
16.8,2.4035389987111557
16.804,2.4022381677350495
16.808,2.4061406606633682
16.812,2.4123196077998728
16.816,2.4152464774961118
16.82,2.4100431535916869
16.824,2.4071162838954479
16.828,2.3973600515746512
16.832,2.3911811044381466
16.836,2.3911811044381466
16.84,2.3856525727896951
16.844,2.3794736256531905
16.848,2.373294678516686
16.852,2.3680913546122611
16.856,2.3648392771719955
16.86,2.3596359532675706
16.864,2.3580099145474378
16.868,2.3586603300354909
16.872,2.3580099145474378
16.876,2.3550830448511988
16.88,2.3524813828989863
16.884,2.3635384461958893
16.888,2.3739450940047391
16.892,2.3596359532675706
16.896,2.324838724656729
16.9,2.2965456509264186
16.904,2.3124808303837199
16.908,2.3957340128545184
16.912,2.5443539518746547
16.916,2.704030954191694
16.92,2.8786675127339549
16.924,3.0793206907983404
16.928,3.2617622351972386
16.932,3.3024132032005582
16.936,3.1040364793443587
16.94,2.7228930033452343
16.944,2.3902054812060669
16.948,2.2090647677832749
16.952,2.1586575674591586
16.956,2.1843489792372566
16.96,2.2305284788890276
16.964,2.2747567320766393
16.968,2.316058115568012
16.972,2.3430503583222162
16.976,2.3547578371071722
16.98,2.3602863687556237
16.984,2.3648392771719955
16.988,2.3716686397965532
16.992,2.3739450940047391
16.996,2.3736198862607125
17,2.3781727946770843
17.004,2.3801240411412437
17.008,2.3801240411412437
17.012,2.3778475869330578
17.016,2.379148417909164
17.02,2.3824004953494295
17.024,2.3876038192538545
17.028,2.39085589669412
17.032,2.3970348438306246
17.036,2.404839829687262
17.04,2.4123196077998728
17.044,2.4129700232879259
17.048,2.4162221007281914
17.052,2.425327917560935
17.056,2.4337833189056255
17.06,2.4376858118339442
17.064,2.4425639279943425
17.068,2.4516697448270861
17.072,2.4669545087963343
17.076,2.4747594946529716
17.08,2.4832148959976621
17.084,2.4932963360624854
17.088,2.5030525683832821
17.092,2.5147600471682381
17.096,2.5219146175368223
17.1,2.531670849857619
17.104,2.5466304060828406
17.108,2.5589883003558498
17.112,2.5684193249326199
17.116,2.5846797121339478
17.12,2.5967123986629304
17.124,2.6051678000076208
17.128,2.6100459161680192
17.132,2.6162248633045238
17.136,2.6324852505058516
17.14,2.6419162750826217
17.144,2.6415910673385952
17.148,2.638013782154303
17.152,2.6367129511781968
17.156,2.6363877434341703
17.16,2.6334608737379313
17.164,2.632160042761825
17.168,2.6276071343454532
17.172,2.6178509020246565
17.176,2.5999644761031959
17.18,2.5794763882295229
17.184,2.5576874693797436
17.188,2.5358985505299643
17.192,2.5154104626562912
17.196,2.4975240367348306
17.2,2.4838653114857152
17.204,2.4676049242843874
17.208,2.4464664209226612
17.212,2.4272791640250944
17.216,2.4090675303596072
17.22,2.4022381677350495
17.224,2.4032137909671292
17.228,2.3915063121821731
17.232,2.3794736256531905
17.236,2.3723190552846063
17.24,2.3667905236361548
17.244,2.3632132384518627
17.248,2.3628880307078362
17.252,2.3612619919877034
17.256,2.359310745523544
17.26,2.3612619919877034
17.264,2.3606115764996503
17.268,2.3602863687556237
17.272,2.3580099145474378
17.276,2.3632132384518627
17.28,2.3687417701003142
17.284,2.3775223791890312
17.288,2.379148417909164
17.292,2.3755711327248719
17.296,2.3771971714450046
17.3,2.3784980024211109
17.304,2.3794736256531905
17.308,2.3853273650456686
17.312,2.3872786115098279
17.316,2.3889046502299607
17.32,2.3859777805337217
17.324,2.3872786115098279
17.328,2.3876038192538545
17.332,2.3856525727896951
17.336,2.3921567276702262
17.34,2.3944331818784121
17.344,2.3905306889500935
17.348,2.385002157301642
17.352,2.3797988333972171
17.356,2.3755711327248719
17.36,2.3752459249808453
17.364,2.3801240411412437
17.368,2.3830509108374827
17.372,2.3794736256531905
17.376,2.3719938475405797
17.38,2.3713434320525266
17.384,2.3745955094927922
17.388,2.3749207172368187
17.392,2.3684165623562876
17.396,2.3654896926600486
17.4,2.3680913546122611
17.404,2.3658149004040752
17.408,2.365164484916022
17.412,2.3615871997317299
17.416,2.3628880307078362
17.42,2.3648392771719955
17.424,2.3638636539399158
17.428,2.3612619919877034
17.432,2.3606115764996503
17.436,2.3625628229638096
17.44,2.3625628229638096
17.444,2.362237615219783
17.448,2.3615871997317299
17.452,2.3602863687556237
17.456,2.3589855377795175
17.46,2.3508553441788536
17.464,2.3469528512505349
17.468,2.3531317983870395
17.472,2.3667905236361548
17.476,2.373294678516686
17.48,2.379148417909164
17.484,2.3814248721173499
17.488,2.3843517418135889
17.492,2.3827257030934561
17.496,2.3801240411412437
17.5,2.3788232101651374
17.504,2.3778475869330578
17.508,2.373294678516686
17.512,2.3661401081481017
17.516,2.3697173933323938
17.52,2.3859777805337217
17.524,2.4035389987111557
17.528,2.4149212697520852
17.532,2.4217506323766429
17.536,2.425327917560935
17.54,2.4250027098169085
17.544,2.4181733471923508
17.548,2.4145960620080587
17.552,2.419474178168457
17.556,2.4256531253049616
17.56,2.4256531253049616
17.564,2.4237018788408022
17.568,2.4302060337213334
17.572,2.4357345653697848
17.576,2.4298808259773068
17.58,2.4220758401206695
17.584,2.4116691923118196
17.588,2.4012625445029698
17.592,2.3918315199261997
17.596,2.3866281960217748
17.6,2.3869534037658013
17.604,2.39085589669412
17.608,2.3905306889500935
17.612,2.3931323509023059
17.616,2.399636505782837
17.62,2.4015877522469964
17.624,2.3963844283425715
17.628,2.3898802734620403
17.632,2.3882542347419076
17.636,2.3827257030934561
17.64,2.3602863687556237
17.644,2.3332941260014195
17.648,2.3378470344177913
17.652,2.407766699383501
17.656,2.551508522243239
17.66,2.7082586548640393
17.664,2.8650087874848396
17.668,3.0526536557881627
17.672,3.2344447846990079
17.676,3.3066409038729034
17.68,3.1518420177162625
17.684,2.801593277399661
17.688,2.4653284700762015
17.692,2.2692282004281878
17.696,2.2110160142474342
17.7,2.2331301408412401
17.704,2.2880902495817281
17.708,2.3316680872812867
17.712,2.3671157313801814
17.716,2.39085589669412
17.72,2.4038642064551823
17.724,2.4103683613357134
17.728,2.4097179458476603
17.732,2.4090675303596072
17.736,2.4084171148715541
17.74,2.4103683613357134
17.744,2.4139456465200055
17.748,2.4191489704244304
17.752,2.4188237626804039
17.756,2.422401047864696
17.76,2.4250027098169085
17.764,2.4289052027452271
17.768,2.4373606040899176
17.772,2.4445151744585019
17.776,2.4594747306837235
17.78,2.468580547516467
17.784,2.4721578327007592
17.788,2.4750847023969982
17.792,2.4705317939806264
17.796,2.468580547516467
17.8,2.4763855333731044
17.804,2.4936215438065119
17.808,2.5033777761273086
17.812,2.5085811000317335
17.816,2.517036501376424
17.82,2.5284187724173535
17.824,2.5381750047381502
17.828,2.545654782850761
17.832,2.557362261635717
17.836,2.5693949481646996
17.84,2.5811024269496556
17.844,2.5879317895742133
17.848,2.5996392683591694
17.852,2.6191517330007628
17.856,2.6360625356901437
17.86,2.6415910673385952
17.864,2.6471195989870466
17.868,2.6562254158197902
17.872,2.6734614262531977
17.876,2.6848436972941272
17.88,2.6900470211985521
17.884,2.695250345102977
17.888,2.7017544999835081
17.892,2.7046813696797471
17.896,2.7033805387036409
17.9,2.6991528380312957
17.904,2.6959007605910301
17.908,2.6897218134545255
17.912,2.6770387114374898
17.916,2.6650060249085072
17.92,2.6572010390518699
17.924,2.6393146131304093
17.928,2.6198021484888159
17.932,2.5973628141509835
17.936,2.580126803717576
17.94,2.5619151700520888
17.944,2.5378497969941236
17.948,2.5215894097927958
17.952,2.5030525683832821
17.956,2.4815888572775293
17.96,2.4611007694038562
17.964,2.4406126815301832
17.968,2.4279295795131475
17.972,2.4201245936565101
17.976,2.4116691923118196
17.98,2.4009373367589433
17.984,2.3944331818784121
17.988,2.3898802734620403
17.992,2.3843517418135889
17.996,2.3788232101651374
18,2.3833761185815092
18.004,2.39085589669412
18.008,2.3931323509023059
18.012,2.3963844283425715
18.016,2.3976852593186777
18.02,2.4012625445029698
18.024,2.4002869212708902
18.028,2.3954088051104918
18.032,2.3960592205985449
18.036,2.4028885832231026
18.04,2.4087423226155806
18.044,2.4032137909671292
18.048,2.3983356748067308
18.052,2.3980104670627043
18.056,2.4058154529193416
18.06,2.4097179458476603
18.064,2.4071162838954479
18.068,2.4041894141992088
18.072,2.4009373367589433
18.076,2.399636505782837
18.08,2.4012625445029698
18.084,2.3999617135268636
18.088,2.3986608825507574
18.092,2.3983356748067308
18.096,2.396709636086598
18.1,2.396709636086598
18.104,2.3973600515746512
18.108,2.3973600515746512
18.112,2.3947583896224387
18.116,2.3934575586463325
18.12,2.3911811044381466
18.124,2.3882542347419076
18.128,2.3830509108374827
18.132,2.3814248721173499
18.136,2.3814248721173499
18.14,2.3814248721173499
18.144,2.3837013263255358
18.148,2.3817500798613764
18.152,2.3788232101651374
18.156,2.3768719637009781
18.16,2.3775223791890312
18.164,2.3726442630286328
18.168,2.3690669778443407
18.172,2.3729694707726594
18.176,2.3765467559569515
18.18,2.3794736256531905
18.184,2.3810996643733233
18.188,2.3778475869330578
18.192,2.3719938475405797
18.196,2.3687417701003142
18.2,2.3713434320525266
18.204,2.3713434320525266
18.208,2.3755711327248719
18.212,2.3784980024211109
18.216,2.3804492488852702
18.22,2.376221548212925
18.224,2.3739450940047391
18.228,2.3749207172368187
18.232,2.3837013263255358
18.236,2.39085589669412
18.24,2.3859777805337217
18.244,2.39085589669412
18.248,2.3960592205985449
18.252,2.4074414916394744
18.256,2.4175229317042977
18.26,2.4158968929841649
18.264,2.4100431535916869
18.268,2.413620438775979
18.272,2.4178481394483242
18.276,2.4181733471923508
18.28,2.4149212697520852
18.284,2.4191489704244304
18.288,2.4188237626804039
18.292,2.4139456465200055
18.296,2.4051650374312885
18.3,2.3963844283425715
18.304,2.3856525727896951
18.308,2.3758963404688984
18.312,2.3804492488852702
18.316,2.3885794424859341
18.32,2.3960592205985449
18.324,2.3931323509023059
18.328,2.3924819354142528
18.332,2.3934575586463325
18.336,2.3944331818784121
18.34,2.396709636086598
18.344,2.3993112980388105
18.348,2.4002869212708902
18.352,2.4035389987111557
18.356,2.3941079741343856
18.36,2.3658149004040752
18.364,2.3342697492334992
18.368,2.3554082525952253
18.372,2.4458160054346081
18.376,2.603541761287488
18.38,2.7921622528228909
18.384,3.005498532904312
18.388,3.2269650065863971
18.392,3.3765605688386131
18.396,3.3154215129616205
18.4,2.9924902231432498
18.404,2.5531345609633718
18.408,2.2477644893224351
18.412,2.1332913634250872
18.416,2.1414215570257511
18.42,2.2015849896706641
18.424,2.2685777849401347
18.428,2.3228874781925697
18.432,2.3658149004040752
18.436,2.3986608825507574
18.44,2.4132952310319524
18.444,2.4155716852401383
18.448,2.4149212697520852
18.452,2.4142708542640321
18.456,2.4162221007281914
18.46,2.4113439845677931
18.464,2.4145960620080587
18.468,2.4285799950012006
18.472,2.4419135125062894
18.476,2.4435395512264222
18.48,2.4399622660421301
18.484,2.4425639279943425
18.488,2.4513445370830595
18.492,2.4620763926359359
18.496,2.4695561707485467
18.5,2.4682553397724405
18.504,2.4711822094686795
18.508,2.4721578327007592
18.512,2.473783871420892
18.516,2.4799628185573965
18.52,2.4867921811819542
18.524,2.4910198818542995
18.528,2.4910198818542995
18.532,2.4975240367348306
18.536,2.5095567232638132
18.54,2.5219146175368223
18.544,2.5293943956494331
18.548,2.5371993815060705
18.552,2.5505328990111593
18.556,2.566142870724434
18.56,2.5758991030452307
18.564,2.5814276346936822
18.568,2.59768802189501
18.572,2.6123223703762051
18.576,2.620452563976869
18.58,2.6285827575775329
18.584,2.6487456377071794
18.588,2.6682581023487728
18.592,2.6845184895501006
18.596,2.6955755528470036
18.6,2.7027301232155878
18.604,2.704030954191694
18.608,2.7001284612633754
18.612,2.6949251373589505
18.616,2.6906974366866052
18.62,2.6828924508299679
18.624,2.6711849720450118
18.628,2.6585018700279761
18.632,2.6467943912430201
18.636,2.6328104582498781
18.64,2.6113467471441254
18.644,2.5814276346936822
18.648,2.5534597687073983
18.652,2.5300448111374862
18.656,2.5108575542399194
18.66,2.4998004909430165
18.664,2.4835401037416887
18.668,2.4624016003799625
18.672,2.4409378892742097
18.676,2.4191489704244304
18.68,2.3970348438306246
18.684,2.3837013263255358
18.688,2.3719938475405797
18.692,2.3599611610115971
18.696,2.350530136434827
18.7,2.3466276435065083
18.704,2.3456520202744287
18.708,2.3410991118580569
18.712,2.3378470344177913
18.716,2.3362209956976585
18.72,2.3355705802096054
18.724,2.3352453724655788
18.728,2.3336193337454461
18.732,2.3323185027693398
18.736,2.3349201647215523
18.74,2.3336193337454461
18.744,2.3310176717932336
18.748,2.3319932950253133
18.752,2.335895787953632
18.756,2.3319932950253133
18.76,2.3241883091686759
18.764,2.3284160098410212
18.768,2.3437007738102693
18.772,2.3537822138750926
18.776,2.359310745523544
18.78,2.356383875827305
18.784,2.3586603300354909
18.788,2.3612619919877034
18.792,2.3606115764996503
18.796,2.3596359532675706
18.8,2.3619124074757565
18.804,2.3661401081481017
18.808,2.3671157313801814
18.812,2.3671157313801814
18.816,2.3677661468682345
18.82,2.370367808820447
18.824,2.3710182243085001
18.828,2.3719938475405797
18.832,2.3765467559569515
18.836,2.3827257030934561
18.84,2.3856525727896951
18.844,2.3846769495576154
18.848,2.3801240411412437
18.852,2.373294678516686
18.856,2.3677661468682345
18.86,2.3641888616839424
18.864,2.3706930165644735
18.868,2.3804492488852702
18.872,2.3853273650456686
18.876,2.3797988333972171
18.88,2.3755711327248719
18.884,2.3784980024211109
18.888,2.3768719637009781
18.892,2.370367808820447
18.896,2.3654896926600486
18.9,2.3697173933323938
18.904,2.3755711327248719
18.908,2.3752459249808453
18.912,2.3664653158921283
18.916,2.3664653158921283
18.92,2.3658149004040752
18.924,2.3658149004040752
18.928,2.3586603300354909
18.932,2.3567090835713316
18.936,2.3612619919877034
18.94,2.3612619919877034
18.944,2.3567090835713316
18.948,2.3518309674109332
18.952,2.3518309674109332
18.956,2.3632132384518627
18.96,2.3729694707726594
18.964,2.3807744566292968
18.968,2.3853273650456686
18.972,2.3872786115098279
18.976,2.3788232101651374
18.98,2.3706930165644735
18.984,2.373294678516686
18.988,2.3827257030934561
18.992,2.3973600515746512
18.996,2.3944331818784121
19,2.387929026997881
19.004,2.3859777805337217
19.008,2.3830509108374827
19.012,2.379148417909164
19.016,2.3706930165644735
19.02,2.3628880307078362
19.024,2.3524813828989863
19.028,2.3502049286908004
19.032,2.3550830448511988
19.036,2.3612619919877034
19.04,2.3615871997317299
19.044,2.3560586680832785
19.048,2.3531317983870395
19.052,2.3547578371071722
19.056,2.3619124074757565
19.06,2.3628880307078362
19.064,2.353457006131066
19.068,2.3472780589945614
19.072,2.3258143478888087
19.076,2.2952448199503124
19.08,2.2737811088445596
19.084,2.3202858162403572
19.088,2.451019329339033
19.092,2.6276071343454532
