Timestamp,3/5/2024 10:38:32 AM
Interval,0.004
Channel name,"Input 0"
Unit,"V"
0,2.2090647677832749
0.004,2.2015849896706641
0.008,2.2051622748549562
0.012,2.2217478698003106
0.016,2.2334553485852666
0.02,2.2259755704726558
0.024,2.2292276479129214
0.028,2.2344309718173463
0.032,2.2308536866330542
0.036,2.218495792360045
0.04,2.2165445458958857
0.044,2.2347561795613728
0.048,2.2438619963941164
0.052,2.2223982852883637
0.056,2.2012597819266375
0.06,2.1980077044863719
0.064,2.2019101974146906
0.068,2.1921539650938939
0.072,2.1879262644215487
0.076,2.2071135213191155
0.08,2.2223982852883637
0.084,2.2090647677832749
0.088,2.1911783418618143
0.092,2.1970320812542923
0.096,2.2168697536399122
0.1,2.227276401448762
0.104,2.2308536866330542
0.108,2.2438619963941164
0.112,2.2679273694520816
0.116,2.2773583940288518
0.12,2.2685777849401347
0.124,2.2692282004281878
0.128,2.281586094701197
0.132,2.2718298623804003
0.136,2.2393090879777446
0.14,2.221422662056284
0.144,2.2253251549846027
0.148,2.2263007782166824
0.152,2.2103655987593811
0.156,2.1986581199744251
0.16,2.2084143522952218
0.164,2.2201218310801778
0.168,2.2080891445511952
0.172,2.189877510885708
0.176,2.1931295883259736
0.18,2.2087395600392483
0.184,2.2162193381518591
0.188,2.2113412219914608
0.192,2.2106908065034077
0.196,2.2149185071757529
0.2,2.2058126903430093
0.204,2.200934574182611
0.208,2.2132924684556201
0.212,2.2295528556569479
0.216,2.2445124118821695
0.22,2.269878615916241
0.224,2.3323185027693398
0.228,2.4321572801854927
0.232,2.5589883003558498
0.236,2.663705193932401
0.24,2.7310231969458982
0.244,2.7063074083998799
0.248,2.5710209868848324
0.252,2.3726442630286328
0.256,2.2116664297354873
0.26,2.1342669866571669
0.264,2.1225595078722108
0.268,2.1391451028175652
0.272,2.1648365145956632
0.276,2.1999589509505313
0.28,2.2269511937047355
0.284,2.2240243240084965
0.288,2.2074387290631421
0.292,2.2103655987593811
0.296,2.2223982852883637
0.3,2.2246747394965496
0.304,2.2240243240084965
0.308,2.2308536866330542
0.312,2.2497157357865945
0.316,2.2568703061551787
0.32,2.247114073834382
0.324,2.2448376196261961
0.328,2.2526426054828335
0.332,2.2653257074998692
0.336,2.2633744610357098
0.34,2.2630492532916833
0.344,2.2741063165885862
0.348,2.2799600559810642
0.352,2.2692282004281878
0.356,2.2646752920118161
0.36,2.2770331862848252
0.364,2.2936187812301796
0.368,2.293293573486153
0.372,2.2880902495817281
0.376,2.2936187812301796
0.38,2.3059766755031887
0.384,2.304350636783056
0.388,2.2971960664144717
0.392,2.3066270909912419
0.396,2.3284160098410212
0.4,2.3349201647215523
0.404,2.3365462034416851
0.408,2.353457006131066
0.412,2.3827257030934561
0.416,2.4002869212708902
0.42,2.4087423226155806
0.424,2.4158968929841649
0.428,2.4337833189056255
0.432,2.445165589946555
0.436,2.4506941215950064
0.44,2.4620763926359359
0.444,2.482564480509609
0.448,2.4919955050863791
0.452,2.4819140650215559
0.456,2.47963761081337
0.46,2.5014265296631493
0.464,2.5235406562569551
0.468,2.52874398016138
0.472,2.5290691879054066
0.476,2.5355733427859377
0.48,2.5463051983388141
0.484,2.5365489660180174
0.488,2.5173617091204505
0.492,2.5160608781443443
0.496,2.5163860858883709
0.5,2.5053290225914679
0.504,2.4848409347177949
0.508,2.4776863643492106
0.512,2.4757351178850513
0.516,2.4650032623321749
0.52,2.4331329034175724
0.524,2.4139456465200055
0.528,2.4145960620080587
0.532,2.4123196077998728
0.536,2.3973600515746512
0.54,2.393782766390359
0.544,2.4087423226155806
0.548,2.4168725162162445
0.552,2.4116691923118196
0.556,2.4051650374312885
0.56,2.4152464774961118
0.564,2.4269539562810678
0.568,2.4289052027452271
0.572,2.4250027098169085
0.576,2.4295556182332803
0.58,2.4386614350660238
0.584,2.4406126815301832
0.588,2.4412630970182363
0.592,2.456873068731511
0.596,2.4728082481888123
0.6,2.4702065862365998
0.604,2.4571982764755376
0.608,2.4611007694038562
0.612,2.482564480509609
0.616,2.4906946741102729
0.62,2.4783367798372637
0.624,2.4741090791649185
0.628,2.4900442586222198
0.632,2.5024021528952289
0.636,2.4978492444788571
0.64,2.4981744522228837
0.644,2.5108575542399194
0.648,2.5215894097927958
0.652,2.5137844239361584
0.656,2.508255892287707
0.66,2.5193129555846099
0.664,2.5319960576016456
0.668,2.5251666949770879
0.672,2.5069550613116007
0.676,2.5069550613116007
0.68,2.5225650330248754
0.684,2.5375245892500971
0.688,2.5443539518746547
0.692,2.5557362229155842
0.696,2.5693949481646996
0.7,2.5580126771237701
0.704,2.5385002124821767
0.708,2.5375245892500971
0.712,2.5502076912671328
0.716,2.554435391939478
0.72,2.5521589377312921
0.724,2.5606143390759826
0.728,2.5739478565810714
0.732,2.5814276346936822
0.736,2.5755738953012042
0.74,2.5752486875571776
0.744,2.583053673413815
0.748,2.5911838670144789
0.752,2.5892326205503196
0.756,2.5866309585981071
0.76,2.5986636451270897
0.764,2.6080946697038598
0.768,2.5967123986629304
0.772,2.5872813740861602
0.776,2.5967123986629304
0.78,2.6100459161680192
0.784,2.6110215394000988
0.788,2.6015905148233287
0.792,2.5996392683591694
0.796,2.6149240323284175
0.8,2.6155744478164706
0.804,2.6012653070793021
0.808,2.5967123986629304
0.812,2.6038669690315146
0.816,2.6054930077516474
0.82,2.5999644761031959
0.824,2.6045173845195677
0.828,2.6217533949529752
0.832,2.6266315111133736
0.836,2.61752569428063
0.84,2.6214281872089487
0.844,2.6415910673385952
0.848,2.6656564403965604
0.852,2.672485803021118
0.856,2.6773639191815164
0.86,2.6884209824784193
0.864,2.6955755528470036
0.868,2.6848436972941272
0.872,2.6737866339972243
0.876,2.6741118417412508
0.88,2.6731362185091712
0.884,2.649070845451206
0.888,2.6201273562328424
0.892,2.6172004865366034
0.896,2.6220786026970018
0.9,2.6110215394000988
0.904,2.5970376064069569
0.908,2.6028913457994349
0.912,2.6168752787925769
0.916,2.6178509020246565
0.92,2.6087450851919129
0.924,2.6178509020246565
0.928,2.6402902363624889
0.932,2.6552497925877105
0.936,2.649070845451206
0.94,2.6448431447788607
0.944,2.6552497925877105
0.948,2.663705193932401
0.952,2.6523229228914715
0.956,2.6432171060587279
0.96,2.6526481306354981
0.964,2.6679328946047463
0.968,2.6841932818060741
0.972,2.7352508976182435
0.976,2.8289107278978918
0.98,2.9573677867883816
0.984,3.0877760921430308
0.988,3.1885904927912634
0.992,3.1954198554158211
0.996,3.0741173668939155
1,2.8780170972459018
1.004,2.6910226444306318
1.008,2.5908586592704523
1.012,2.5684193249326199
1.016,2.5798015959735494
1.02,2.594761152198771
1.024,2.6142736168403644
1.028,2.6272819266014267
1.032,2.6217533949529752
1.036,2.6142736168403644
1.04,2.6181761097686831
1.044,2.6282575498335063
1.048,2.6344364969700109
1.052,2.6185013175127096
1.056,2.6136232013523113
1.06,2.6334608737379313
1.064,2.6510220919153653
1.068,2.6471195989870466
1.072,2.6432171060587279
1.076,2.6552497925877105
1.08,2.6604531164921355
1.084,2.6419162750826217
1.088,2.6217533949529752
1.092,2.6224038104410283
1.096,2.6393146131304093
1.1,2.6500464686832856
1.104,2.6477700144750997
1.108,2.6464691834989935
1.112,2.6672824791166931
1.116,2.6825672430859413
1.12,2.6867949437582865
1.124,2.6939495141268708
1.128,2.7134619787684642
1.132,2.7245190420653671
1.136,2.7163888484647032
1.14,2.7072830316319596
1.144,2.7082586548640393
1.148,2.7206165491370484
1.152,2.7232182110892609
1.156,2.7329744434100576
1.16,2.7544381545158103
1.164,2.770048126229085
1.168,2.7596414784202352
1.172,2.7544381545158103
1.176,2.7697229184850585
1.18,2.7866337211744394
1.184,2.7837068514782004
1.188,2.7788287353178021
1.192,2.7863085134304129
1.196,2.8041949393518735
1.2,2.8139511716726702
1.204,2.8250082349695731
1.208,2.841919037658954
1.212,2.8552525551640429
1.216,2.8568785938841756
1.22,2.8334636363142636
1.224,2.8292359356419183
1.228,2.836065298266476
1.232,2.8233821962494403
1.236,2.7963899534952361
1.24,2.7859833056863863
1.244,2.7882597598945722
1.248,2.7775279043416958
1.252,2.7482592073793057
1.256,2.7232182110892609
1.26,2.715088017488597
1.264,2.706957823887933
1.268,2.6854941127821803
1.272,2.6611035319801886
1.276,2.6542741693556309
1.28,2.6526481306354981
1.284,2.629233173065586
1.288,2.5967123986629304
1.292,2.5876065818301868
1.296,2.5892326205503196
1.3,2.5752486875571776
1.304,2.5560614306596108
1.308,2.5476060293149203
1.312,2.5450043673627079
1.316,2.5339473040658049
1.32,2.5137844239361584
1.324,2.4962232057587244
1.328,2.488418219902087
1.332,2.4640276391000953
1.336,2.425327917560935
1.34,2.3960592205985449
1.344,2.3941079741343856
1.348,2.3882542347419076
1.352,2.3658149004040752
1.356,2.3329689182573929
1.36,2.3037002212950028
1.364,2.2770331862848252
1.368,2.2318293098651338
1.372,2.2116664297354873
1.376,2.2142680916876998
1.38,2.2210974543122575
1.384,2.2178453768719919
1.388,2.1963816657662392
1.392,2.1797960708208848
1.396,2.1745927469164599
1.4,2.1528038280666806
1.404,2.1248359620803967
1.408,2.1150797297596
1.412,2.1193074304319452
1.416,2.1131284832954407
1.42,2.0958924728620332
1.424,2.0965428883500863
1.428,2.1160553529916797
1.432,2.1206082614080515
1.436,2.1085755748790689
1.44,2.1010957967664581
1.444,2.1163805607357062
1.448,2.1254863775684498
1.452,2.1176813917118125
1.456,2.1089007826230954
1.46,2.106299120670883
1.464,2.0981689270702191
1.468,2.0698758533399086
1.472,2.0536154661385808
1.476,2.0558919203467667
1.48,2.0584935822989792
1.484,2.0415827796095982
1.488,2.0227207304560579
1.492,2.0139401213673409
1.496,2.0054847200226504
1.5,1.9840210089168977
1.504,1.9462969106098171
1.508,1.9049955271184444
1.512,1.8688974675314967
1.516,1.8214171369036194
1.52,1.7648309894429985
1.524,1.7121473349106964
1.528,1.7062935955182184
1.532,1.7456437325454317
1.536,1.7944248941494152
1.54,1.8552387422823813
1.544,1.914101343951188
1.548,1.9404431712173391
1.552,1.942719625425525
1.556,1.9589800126268528
1.56,1.9947528644697741
1.564,2.0188182375277393
1.568,2.0168669910635799
1.572,2.0136149136233144
1.576,2.0370298711932264
1.58,2.0705262688279618
1.584,2.0887379024934489
1.588,2.1010957967664581
1.592,2.1196326381759718
1.596,2.1313401169609278
1.6,2.120933469152078
1.604,2.1066243284149095
1.608,2.1111772368312813
1.612,2.1118276523193344
1.616,2.0926403954217676
1.62,2.0617456597392447
1.624,2.0601196210191119
1.628,2.0890631102374755
1.632,2.1131284832954407
1.636,2.1075999516469892
1.64,2.1069495361589361
1.644,2.1264620008005295
1.648,2.152478620322654
1.652,2.1677633842919022
1.656,2.1944304193020798
1.66,2.2370326337695587
1.664,2.2796348482370377
1.668,2.2997977283666842
1.672,2.3173589465441182
1.676,2.347603266738588
1.68,2.3794736256531905
1.684,2.3928071431582794
1.688,2.4022381677350495
1.692,2.4315068646974396
1.696,2.4711822094686795
1.7,2.4838653114857152
1.704,2.4867921811819542
1.708,2.5245162794890348
1.712,2.6048425922635943
1.716,2.7141123942565173
1.72,2.8506996467476711
1.724,3.0015960399759933
1.728,3.1274514369142707
1.732,3.1362320460029878
1.736,2.9941162618633825
1.74,2.786958928918466
1.744,2.6211029794649221
1.748,2.5303700188815128
1.752,2.5007761141750962
1.756,2.5160608781443443
1.76,2.5570370538916904
1.764,2.5973628141509835
1.768,2.6087450851919129
1.772,2.6025661380554084
1.776,2.6048425922635943
1.78,2.6172004865366034
1.784,2.6194769407447893
1.788,2.6185013175127096
1.792,2.6308592117857188
1.796,2.6497212609392591
1.8,2.6506968841713388
1.804,2.638013782154303
1.808,2.6412658595945686
1.812,2.6545993770996574
1.816,2.6617539474682417
1.82,2.6506968841713388
1.824,2.6477700144750997
1.828,2.6685833100927994
1.832,2.6841932818060741
1.836,2.6796403733897023
1.84,2.6760630882054102
1.844,2.6845184895501006
1.848,2.6968763838231098
1.852,2.6929738908947911
1.856,2.6854941127821803
1.86,2.6919982676627114
1.864,2.6965511760790832
1.868,2.6874453592463396
1.872,2.6874453592463396
1.876,2.7063074083998799
1.88,2.723868626577314
1.884,2.7261450807854999
1.888,2.7264702885295264
1.892,2.7319988201779779
1.896,2.7398038060346153
1.9,2.7407794292666949
1.904,2.7323240279220045
1.908,2.738502975058509
1.912,2.7567146087239962
1.916,2.761267517140368
1.92,2.7541129467717838
1.924,2.7606171016523149
1.928,2.7882597598945722
1.932,2.8077722245361656
1.936,2.8012680696556345
1.94,2.7954143302631564
1.944,2.8045201470959
1.948,2.8188292878330685
1.952,2.8142763794166967
1.956,2.8035445238638204
1.96,2.8119999252085108
1.964,2.8172032491129357
1.968,2.8028941083757672
1.972,2.7820808127580676
1.976,2.7742758269014303
1.98,2.7710237494611647
1.984,2.7479339996352792
1.988,2.7163888484647032
1.992,2.7053317851678003
1.996,2.6978520070551895
2,2.6783395424135961
2.004,2.649070845451206
2.008,2.6276071343454532
2.012,2.6185013175127096
2.016,2.5993140606151428
2.02,2.5778503495093901
2.024,2.5651672474923544
2.028,2.5638664165162481
2.032,2.5583378848677967
2.036,2.5424027054104954
2.04,2.534597719553858
2.044,2.5398010434582829
2.048,2.5391506279702298
2.052,2.5183373323525302
2.056,2.511182761983946
2.06,2.522890240768902
2.064,2.5300448111374862
2.068,2.5173617091204505
2.072,2.5053290225914679
2.076,2.5098819310078397
2.08,2.5176869168644771
2.084,2.5115079697279725
2.088,2.5040281916153617
2.092,2.5069550613116007
2.096,2.5118331774719991
2.1,2.5066298535675742
2.104,2.4945971670385916
2.108,2.4890686353901401
2.112,2.497198828990804
2.116,2.4968736212467775
2.12,2.485491350205848
2.124,2.4809384417894762
2.128,2.4919955050863791
2.132,2.4991500754549634
2.136,2.4929711283184588
2.14,2.488418219902087
2.144,2.4955727902706712
2.148,2.4991500754549634
2.152,2.4893938431341667
2.156,2.4741090791649185
2.16,2.4757351178850513
2.164,2.4812636495335028
2.168,2.4780115720932372
2.172,2.4741090791649185
2.176,2.4880930121580604
2.18,2.5027273606392555
2.184,2.4929711283184588
2.188,2.476710741117131
2.192,2.4695561707485467
2.196,2.4711822094686795
2.2,2.4607755616598297
2.204,2.4471168364107143
2.208,2.4558974454994313
2.212,2.473783871420892
2.216,2.4793124030693434
2.22,2.4676049242843874
2.224,2.4578486919635907
2.228,2.4575234842195641
2.232,2.4519949525711127
2.236,2.4337833189056255
2.24,2.4289052027452271
2.244,2.4497184983629268
2.248,2.4650032623321749
2.252,2.4549218222673517
2.256,2.4425639279943425
2.26,2.4487428751308471
2.264,2.4552470300113782
2.268,2.4441899667144753
2.272,2.4285799950012006
2.276,2.4308564492093865
2.28,2.439311850554077
2.284,2.428254787257174
2.288,2.4168725162162445
2.292,2.4237018788408022
2.296,2.4409378892742097
2.3,2.4386614350660238
2.304,2.4233766710967757
2.308,2.4207750091445632
2.312,2.4350841498817317
2.316,2.4419135125062894
2.32,2.4376858118339442
2.324,2.4432143434823956
2.328,2.453946199035272
2.332,2.4529705758031923
2.336,2.4506941215950064
2.34,2.462726808123989
2.344,2.4835401037416887
2.348,2.4936215438065119
2.352,2.4783367798372637
2.356,2.4640276391000953
2.36,2.4607755616598297
2.364,2.4659788855642546
2.368,2.4617511848919094
2.372,2.4552470300113782
2.376,2.4614259771478828
2.38,2.4637024313560687
2.384,2.4448403822025284
2.388,2.4246775020728819
2.392,2.4178481394483242
2.396,2.4233766710967757
2.4,2.4168725162162445
2.404,2.4067910761514213
2.408,2.4061406606633682
2.412,2.4080919071275275
2.416,2.4058154529193416
2.42,2.3980104670627043
2.424,2.3999617135268636
2.428,2.4149212697520852
2.432,2.4207750091445632
2.436,2.4129700232879259
2.44,2.4110187768237665
2.444,2.4250027098169085
2.448,2.4298808259773068
2.452,2.4100431535916869
2.456,2.4142708542640321
2.46,2.4584991074516438
2.464,2.5290691879054066
2.468,2.6100459161680192
2.472,2.7293971582257655
2.476,2.8594802558363881
2.48,2.9511888396518771
2.484,2.9072857942082919
2.488,2.7381777673144825
2.492,2.5388254202262033
2.496,2.3911811044381466
2.5,2.3040254290390294
2.504,2.2711794468923472
2.508,2.2910171192779671
2.512,2.3336193337454461
2.516,2.3638636539399158
2.52,2.3700426010764204
2.524,2.3723190552846063
2.528,2.3804492488852702
2.532,2.3924819354142528
2.536,2.3902054812060669
2.54,2.3869534037658013
2.544,2.3970348438306246
2.548,2.399636505782837
2.552,2.3824004953494295
2.556,2.3710182243085001
2.56,2.3863029882777482
2.564,2.4074414916394744
2.568,2.4025633754790761
2.572,2.3934575586463325
2.576,2.4002869212708902
2.58,2.4110187768237665
2.584,2.4009373367589433
2.588,2.3840265340695623
2.592,2.3911811044381466
2.596,2.4051650374312885
2.6,2.4129700232879259
2.604,2.4145960620080587
2.608,2.4259783330489881
2.612,2.4428891357383691
2.616,2.4402874737861566
2.62,2.4279295795131475
2.624,2.4321572801854927
2.628,2.4497184983629268
2.632,2.4497184983629268
2.636,2.434108526649652
2.64,2.431181656953413
2.644,2.4373606040899176
2.648,2.4415883047622629
2.652,2.4389866428100504
2.656,2.4487428751308471
2.66,2.4750847023969982
2.664,2.4949223747826181
2.668,2.5020769451512024
2.672,2.5069550613116007
2.676,2.5290691879054066
2.68,2.551508522243239
2.684,2.5606143390759826
2.688,2.5619151700520888
2.692,2.5736226488370448
2.696,2.5866309585981071
2.7,2.5814276346936822
2.704,2.5710209868848324
2.708,2.583053673413815
2.712,2.6093955006799661
2.716,2.614598824584391
2.72,2.5973628141509835
2.724,2.585980543110054
2.728,2.5902082437823992
2.732,2.5817528424377088
2.736,2.5528093532193452
2.74,2.5378497969941236
2.744,2.5371993815060705
2.748,2.531670849857619
2.752,2.5059794380795211
2.756,2.482564480509609
2.76,2.4705317939806264
2.764,2.4669545087963343
2.768,2.4503689138509799
2.772,2.434108526649652
2.776,2.4370353963458911
2.78,2.442238720250316
2.784,2.4386614350660238
2.788,2.4279295795131475
2.792,2.434108526649652
2.796,2.453946199035272
2.8,2.4607755616598297
2.804,2.4523201603151392
2.808,2.4536209912912454
2.812,2.4666293010523077
2.816,2.4650032623321749
2.82,2.4458160054346081
2.824,2.4396370582981035
2.828,2.4519949525711127
2.832,2.4584991074516438
2.836,2.4506941215950064
2.84,2.4487428751308471
2.844,2.4555722377554048
2.848,2.4575234842195641
2.852,2.4497184983629268
2.856,2.4458160054346081
2.86,2.4503689138509799
2.864,2.4601251461717766
2.868,2.4545966145233251
2.872,2.4474420441547409
2.876,2.4477672518987674
2.88,2.4617511848919094
2.884,2.4653284700762015
2.888,2.4591495229396969
2.892,2.4614259771478828
2.896,2.4630520158680156
2.9,2.4461412131786346
2.904,2.4191489704244304
2.908,2.4054902451753151
2.912,2.3941079741343856
2.916,2.3664653158921283
2.92,2.3342697492334992
2.924,2.3287412175850477
2.928,2.3463024357624818
2.932,2.3602863687556237
2.936,2.3554082525952253
2.94,2.3472780589945614
2.944,2.3453268125304021
2.948,2.3430503583222162
2.952,2.3254891401447821
2.956,2.3154077000799589
2.96,2.3206110239843838
2.964,2.324838724656729
2.968,2.3128060381277464
2.972,2.301423767086817
2.976,2.2994725206226576
2.98,2.3017489748308435
2.984,2.2819113024452236
2.988,2.2636996687797364
2.992,2.2666265384759754
2.996,2.2793096404930111
3,2.2750819398206659
3.004,2.2601223835954443
3.008,2.2581711371312849
3.012,2.2715046546363737
3.016,2.2702038236602675
3.02,2.2458132428582758
3.024,2.2282520246808417
3.028,2.2295528556569479
3.032,2.2282520246808417
3.036,2.2132924684556201
3.04,2.2132924684556201
3.044,2.232479725353187
3.048,2.2438619963941164
3.052,2.2308536866330542
3.056,2.2207722465682309
3.06,2.2298780634009745
3.064,2.2373578415135853
3.068,2.2276016091927886
3.072,2.2113412219914608
3.076,2.221422662056284
3.08,2.2451628273702227
3.084,2.2523173977388069
3.088,2.25296781322686
3.092,2.2633744610357098
3.096,2.2724802778684534
3.1,2.2715046546363737
3.104,2.2672769539640285
3.108,2.2835373411653563
3.112,2.3059766755031887
3.116,2.3206110239843838
3.12,2.3238631014246494
3.124,2.3225622704485431
3.128,2.3300420485611539
3.132,2.3336193337454461
3.136,2.2958952354383655
3.14,2.1836985637492035
3.144,2.1163805607357062
3.148,2.1212586768961046
3.152,2.123860338848317
3.156,2.0438592338177841
3.16,2.008736797462916
3.164,2.0324769627768546
3.168,2.0584935822989792
3.172,2.0825589553569444
3.176,2.109225990367122
3.18,2.1306897014728747
3.184,2.1329661556810606
3.188,2.1310149092169013
3.192,2.1459744654421229
3.196,2.1654869300837163
3.2,2.1726415004523005
3.204,2.1680885920359287
3.208,2.1713406694761943
3.212,2.1823977327730972
3.216,2.1846741869812831
3.22,2.1797960708208848
3.224,2.1827229405171238
3.228,2.1963816657662392
3.232,2.1937800038140267
3.236,2.1797960708208848
3.24,2.2022354051587172
3.244,2.2835373411653563
3.248,2.3980104670627043
3.252,2.5232154485129286
3.256,2.6555750003317371
3.26,2.7674464642768726
3.264,2.7921622528228909
3.268,2.6698841410689056
3.272,2.4747594946529716
3.276,2.3037002212950028
3.28,2.2019101974146906
3.284,2.1580071519711055
3.288,2.152478620322654
3.292,2.1817473172850441
3.296,2.2188210001040716
3.3,2.2363822182815056
3.304,2.2331301408412401
3.308,2.2337805563292932
3.312,2.2181705846160185
3.316,2.1941052115580533
3.32,2.1846741869812831
3.324,2.2002841586945578
3.328,2.2295528556569479
3.332,2.2477644893224351
3.336,2.2399595034657978
3.34,2.235406595049426
3.344,2.2451628273702227
3.348,2.2519921899947803
3.352,2.2506913590186741
3.356,2.2292276479129214
3.36,2.1905279263737611
3.364,2.1586575674591586
3.368,2.1459744654421229
3.372,2.1485761273943353
3.376,2.1736171236843802
3.38,2.1973572889983188
3.384,2.2035362361348234
3.388,2.2041866516228765
3.392,2.2223982852883637
3.396,2.2484149048104882
3.4,2.244187204138143
3.404,2.2201218310801778
3.408,2.2139428839436732
3.412,2.2230487007764168
3.416,2.2223982852883637
3.42,2.2061378980870359
3.424,2.1954060425341595
3.428,2.2002841586945578
3.432,2.2054874825989828
3.436,2.2048370671109296
3.44,2.2139428839436732
3.444,2.247114073834382
3.448,2.2744315243326128
3.452,2.2806104714691173
3.456,2.2832121334213298
3.46,2.2955700276943389
3.464,2.3118304148956668
3.468,2.3245135169127025
3.472,2.344676397042349
3.476,2.3755711327248719
3.48,2.4028885832231026
3.484,2.4058154529193416
3.488,2.3970348438306246
3.492,2.3999617135268636
3.496,2.4071162838954479
3.5,2.4041894141992088
3.504,2.4006121290149167
3.508,2.4119944000558462
3.512,2.4246775020728819
3.516,2.413620438775979
3.52,2.3752459249808453
3.524,2.347603266738588
3.528,2.3440259815542959
3.532,2.3297168408171274
3.536,2.2799600559810642
3.54,2.2331301408412401
3.544,2.218495792360045
3.548,2.209715183271328
3.552,2.1804464863089379
3.556,2.1570315287390258
3.56,2.1531290358107071
3.564,2.158332359715132
3.568,2.1410963492817245
3.572,2.1134536910394672
3.576,2.1001201735343784
3.58,2.0825589553569444
3.584,2.0500381809542887
3.588,2.0201190685038455
3.592,2.008736797462916
3.596,2.0136149136233144
3.6,2.0191434452717658
3.604,2.0243467691761907
3.608,2.040281948633492
3.612,2.0692254378518555
3.616,2.0897135257255286
3.62,2.0945916418859269
3.624,2.1075999516469892
3.628,2.1365434408653527
3.632,2.1576819442270789
3.636,2.1547550745308399
3.64,2.1563811132509727
3.644,2.1697146307560615
3.648,2.1804464863089379
3.652,2.1863002257014159
3.656,2.189877510885708
3.66,2.2012597819266375
3.664,2.2058126903430093
3.668,2.2012597819266375
3.672,2.1885766799096018
3.676,2.1908531341177877
3.68,2.2093899755273014
3.684,2.2175201691279653
3.688,2.2181705846160185
3.692,2.2263007782166824
3.696,2.2406099189538509
3.7,2.2386586724896915
3.704,2.2295528556569479
3.708,2.2432115809060633
3.712,2.2659761229879223
3.716,2.2721550701244269
3.72,2.2659761229879223
3.724,2.2721550701244269
3.728,2.2900414960458875
3.732,2.2838625489093829
3.736,2.2549190596910194
3.74,2.238333464745665
3.744,2.2438619963941164
3.748,2.2513417745067272
3.752,2.2451628273702227
3.756,2.2519921899947803
3.76,2.275732355308719
3.764,2.2910171192779671
3.768,2.2841877566534095
3.772,2.2734559011005331
3.776,2.2796348482370377
3.78,2.2978464819025248
3.784,2.3010985593427904
3.788,2.2965456509264186
3.792,2.3030498058069497
3.796,2.3170337388000917
3.8,2.3141068691038527
3.804,2.2916675347660203
3.808,2.2770331862848252
3.812,2.2666265384759754
3.816,2.2415855421859305
3.82,2.2223982852883637
3.824,2.2266259859607089
3.828,2.2445124118821695
3.832,2.2484149048104882
3.836,2.2419107499299571
3.84,2.2539434364589397
3.844,2.2663013307319488
3.848,2.2630492532916833
3.852,2.2425611654180102
3.856,2.2451628273702227
3.86,2.2734559011005331
3.864,2.3111799994076136
3.868,2.3202858162403572
3.872,2.3180093620321713
3.876,2.3368714111857116
3.88,2.353457006131066
3.884,2.3437007738102693
3.888,2.324838724656729
3.892,2.3245135169127025
3.896,2.3397982808819506
3.9,2.3453268125304021
3.904,2.3371966189297382
3.908,2.3407739041140303
3.912,2.3528065906430129
3.916,2.3511805519228801
3.92,2.3323185027693398
3.924,2.3085783374554012
3.928,2.301423767086817
3.932,2.2923179502540734
3.936,2.2747567320766393
3.94,2.2770331862848252
3.944,2.2971960664144717
3.948,2.3089035451994278
3.952,2.2984968973905779
3.956,2.2939439889742061
3.96,2.3059766755031887
3.964,2.3147572845919058
3.968,2.3118304148956668
3.972,2.3170337388000917
3.976,2.3355705802096054
3.98,2.3531317983870395
3.984,2.3742703017487656
3.988,2.422401047864696
3.992,2.5095567232638132
3.996,2.6084198774478864
4,2.7046813696797471
4.004,2.8051705625839531
4.008,2.8689112804131582
4.012,2.8045201470959
4.016,2.6110215394000988
4.02,2.3336193337454461
4.024,2.0815833321248647
4.028,1.9036946961423382
4.032,1.7921484399412293
4.036,1.8022298800060526
4.04,1.8864586857089307
4.044,1.9736143611080479
4.048,2.0360542479611468
4.052,2.0741035540122539
4.056,2.1007705890224315
4.06,2.1170309762237594
4.064,2.1339417789131403
4.068,2.1352426098892465
4.072,2.1358930253772996
4.076,2.1609340216673445
4.08,2.1957312502781861
4.084,2.209715183271328
4.088,2.2061378980870359
4.092,2.2191462078480981
4.096,2.2422359576739836
4.1,2.2568703061551787
4.104,2.2640248765237629
4.108,2.2747567320766393
4.112,2.2984968973905779
4.116,2.3124808303837199
4.12,2.3056514677591622
4.124,2.3063018832472153
4.128,2.3173589465441182
4.132,2.3264647633768618
4.136,2.3310176717932336
4.14,2.3404486963700037
4.144,2.3661401081481017
4.148,2.3827257030934561
4.152,2.3781727946770843
4.156,2.3716686397965532
4.16,2.3876038192538545
4.164,2.407766699383501
4.168,2.4175229317042977
4.172,2.4289052027452271
4.176,2.4461412131786346
4.18,2.4601251461717766
4.184,2.4545966145233251
4.188,2.4435395512264222
4.192,2.4571982764755376
4.196,2.4903694663662463
4.2,2.5102071387518663
4.204,2.5219146175368223
4.208,2.5443539518746547
4.212,2.5713461946288589
4.216,2.5814276346936822
4.22,2.5778503495093901
4.224,2.5840292966458946
4.228,2.5980132296390366
4.232,2.6090702929359395
4.236,2.5999644761031959
4.24,2.594761152198771
4.244,2.6002896838472225
4.248,2.6136232013523113
4.252,2.6152492400724441
4.256,2.6045173845195677
4.26,2.6022409303113818
4.264,2.5996392683591694
4.268,2.5762243107892573
4.272,2.5495572757790796
4.276,2.5365489660180174
4.28,2.5232154485129286
4.284,2.4955727902706712
4.288,2.4679301320284139
4.292,2.4552470300113782
4.296,2.4542714067792986
4.3,2.453946199035272
4.304,2.4461412131786346
4.308,2.4383362273219973
4.312,2.4399622660421301
4.316,2.4350841498817317
4.32,2.4214254246326163
4.324,2.4171977239602711
4.328,2.4233766710967757
4.332,2.4237018788408022
4.336,2.4142708542640321
4.34,2.4090675303596072
4.344,2.4204498014005367
4.348,2.4272791640250944
4.352,2.4175229317042977
4.356,2.4084171148715541
4.36,2.4139456465200055
4.364,2.4298808259773068
4.368,2.4357345653697848
4.372,2.4367101886018645
4.376,2.4526453680591658
4.38,2.4711822094686795
4.384,2.4624016003799625
4.388,2.4389866428100504
4.392,2.4272791640250944
4.396,2.428254787257174
4.4,2.425327917560935
4.404,2.4123196077998728
4.408,2.4178481394483242
4.412,2.4357345653697848
4.416,2.4367101886018645
4.42,2.4240270865848288
4.424,2.4181733471923508
4.428,2.4279295795131475
4.432,2.4328076956735458
4.436,2.4217506323766429
4.44,2.4168725162162445
4.444,2.428254787257174
4.448,2.4380110195779707
4.452,2.4344337343936786
4.456,2.4266287485370412
4.46,2.4298808259773068
4.464,2.4334581111615989
4.468,2.4197993859124836
4.472,2.4067910761514213
4.476,2.4129700232879259
4.48,2.4230514633527491
4.484,2.4152464774961118
4.488,2.3993112980388105
4.492,2.4045146219432354
4.496,2.4227262556087226
4.5,2.4197993859124836
4.504,2.3980104670627043
4.508,2.3941079741343856
4.512,2.413620438775979
4.516,2.4240270865848288
4.52,2.4211002168885898
4.524,2.4217506323766429
4.528,2.4269539562810678
4.532,2.4217506323766429
4.536,2.4110187768237665
4.54,2.4080919071275275
4.544,2.41069356907974
4.548,2.4100431535916869
4.552,2.3924819354142528
4.556,2.3882542347419076
4.56,2.4090675303596072
4.564,2.4259783330489881
4.568,2.416547308472218
4.572,2.4015877522469964
4.576,2.4028885832231026
4.58,2.4181733471923508
4.584,2.4227262556087226
4.588,2.4204498014005367
4.592,2.4321572801854927
4.596,2.4519949525711127
4.6,2.453946199035272
4.604,2.4477672518987674
4.608,2.4591495229396969
4.612,2.4858165579498746
4.616,2.500125698687043
4.62,2.497198828990804
4.624,2.5007761141750962
4.628,2.5056542303354945
4.632,2.5024021528952289
4.636,2.4835401037416887
4.64,2.4731334559328388
4.644,2.4799628185573965
4.648,2.4757351178850513
4.652,2.4601251461717766
4.656,2.4581738997076172
4.66,2.4669545087963343
4.664,2.4689057552604936
4.668,2.4516697448270861
4.672,2.4337833189056255
4.676,2.4334581111615989
4.68,2.4399622660421301
4.684,2.4285799950012006
4.688,2.3928071431582794
4.692,2.3293916330731008
4.696,2.3033750135509763
4.7,2.3056514677591622
4.704,2.3124808303837199
4.708,2.3326437105133664
4.712,2.3638636539399158
4.716,2.3765467559569515
4.72,2.3674409391242079
4.724,2.373294678516686
4.728,2.4113439845677931
4.732,2.4757351178850513
4.736,2.5430531208985485
4.74,2.6438675215467811
4.744,2.7872841366624925
4.748,2.9069605864642654
4.752,2.9495628009317443
4.756,2.8562281783961225
4.76,2.680615996621782
4.764,2.4936215438065119
4.768,2.3511805519228801
4.772,2.2871146263496485
4.776,2.287439834093675
4.78,2.3196354007523041
4.784,2.3407739041140303
4.788,2.3466276435065083
4.792,2.3648392771719955
4.796,2.396709636086598
4.8,2.4093927381036337
4.804,2.4041894141992088
4.808,2.4100431535916869
4.812,2.4305312414653599
4.816,2.439311850554077
4.82,2.4321572801854927
4.824,2.4331329034175724
4.828,2.4350841498817317
4.832,2.4289052027452271
4.836,2.4211002168885898
4.84,2.4292304104892537
4.844,2.4526453680591658
4.848,2.4663040933082812
4.852,2.4650032623321749
4.856,2.4659788855642546
4.86,2.4776863643492106
4.864,2.4916702973423526
4.868,2.4874425966700073
4.872,2.4799628185573965
4.876,2.4864669734379277
4.88,2.4929711283184588
4.884,2.4822392727655824
4.888,2.4728082481888123
4.892,2.4832148959976621
4.896,2.4978492444788571
4.9,2.4955727902706712
4.904,2.4887434276461136
4.908,2.4998004909430165
4.912,2.5245162794890348
4.916,2.5355733427859377
4.92,2.5300448111374862
4.924,2.5277683569293004
4.928,2.5414270821784157
4.932,2.5508581067551859
4.936,2.5557362229155842
4.94,2.5671184939565137
4.944,2.5973628141509835
4.948,2.6207777717208955
4.952,2.6201273562328424
4.956,2.6220786026970018
4.96,2.6347617047140375
4.964,2.6458187680109404
4.968,2.6448431447788607
4.972,2.6467943912430201
4.976,2.6672824791166931
4.98,2.6890713979664724
4.984,2.6874453592463396
4.988,2.6744370494852774
4.992,2.6721605952770915
4.996,2.6757378804613836
5,2.6575262467958964
5.004,2.6250054723932408
5.008,2.6048425922635943
5.012,2.6077694619598333
5.016,2.6051678000076208
5.02,2.583053673413815
5.024,2.5638664165162481
5.028,2.5606143390759826
5.032,2.5492320680350531
5.036,2.5173617091204505
5.04,2.4984996599669103
5.044,2.5017517374071758
5.048,2.5027273606392555
5.052,2.4851661424618214
5.056,2.465653677820228
5.06,2.4614259771478828
5.064,2.462726808123989
5.068,2.451019329339033
5.072,2.434108526649652
5.076,2.4201245936565101
5.08,2.416547308472218
5.084,2.4019129599910229
5.088,2.3898802734620403
5.092,2.4006121290149167
5.096,2.4184985549363773
5.1,2.419474178168457
5.104,2.4168725162162445
5.108,2.4259783330489881
5.112,2.4412630970182363
5.116,2.4399622660421301
5.12,2.4263035407930147
5.124,2.4272791640250944
5.128,2.4386614350660238
5.132,2.4458160054346081
5.136,2.4383362273219973
5.14,2.4279295795131475
5.144,2.4289052027452271
5.148,2.4318320724414662
5.152,2.4139456465200055
5.156,2.3970348438306246
5.16,2.3983356748067308
5.164,2.4129700232879259
5.168,2.4149212697520852
5.172,2.4171977239602711
5.176,2.4315068646974396
5.18,2.4461412131786346
5.184,2.4376858118339442
5.188,2.4217506323766429
5.192,2.4250027098169085
5.196,2.434108526649652
5.2,2.428254787257174
5.204,2.4237018788408022
5.208,2.4337833189056255
5.212,2.4438647589704487
5.216,2.4412630970182363
5.22,2.425327917560935
5.224,2.4230514633527491
5.228,2.4373606040899176
5.232,2.448092459642794
5.236,2.4396370582981035
5.24,2.4363849808578379
5.244,2.445165589946555
5.248,2.4467916286666878
5.252,2.4318320724414662
5.256,2.4292304104892537
5.26,2.4380110195779707
5.264,2.4406126815301832
5.268,2.4217506323766429
5.272,2.4132952310319524
5.276,2.4246775020728819
5.28,2.439311850554077
5.284,2.4350841498817317
5.288,2.4207750091445632
5.292,2.4214254246326163
5.296,2.4337833189056255
5.3,2.442238720250316
5.304,2.4448403822025284
5.308,2.4575234842195641
5.312,2.4724830404447857
5.316,2.4672797165403608
5.32,2.4523201603151392
5.324,2.4467916286666878
5.328,2.4532957835472189
5.332,2.4497184983629268
5.336,2.4318320724414662
5.34,2.4256531253049616
5.344,2.4334581111615989
5.348,2.4458160054346081
5.352,2.4428891357383691
5.356,2.4406126815301832
5.36,2.4545966145233251
5.364,2.4695561707485467
5.368,2.4731334559328388
5.372,2.4828896882536355
5.376,2.5020769451512024
5.38,2.5118331774719991
5.384,2.5037029838713352
5.388,2.488418219902087
5.392,2.4880930121580604
5.396,2.488418219902087
5.4,2.4832148959976621
5.404,2.4698813784925733
5.408,2.4672797165403608
5.412,2.473783871420892
5.416,2.4689057552604936
5.42,2.4591495229396969
5.424,2.45979993842775
5.428,2.4591495229396969
5.432,2.4477672518987674
5.436,2.425327917560935
5.44,2.4155716852401383
5.444,2.419474178168457
5.448,2.4214254246326163
5.452,2.4139456465200055
5.456,2.4058154529193416
5.46,2.4110187768237665
5.464,2.4175229317042977
5.468,2.4074414916394744
5.472,2.3944331818784121
5.476,2.4009373367589433
5.48,2.4061406606633682
5.484,2.3960592205985449
5.488,2.3892298579739872
5.492,2.4110187768237665
5.496,2.4702065862365998
5.5,2.5407766666903626
5.504,2.6337860814819578
5.508,2.7628935558605008
5.512,2.8780170972459018
5.516,2.930700751778204
5.52,2.8458215305872727
5.524,2.672485803021118
5.528,2.4864669734379277
5.532,2.3515057596669067
5.536,2.2809356792131439
5.54,2.2724802778684534
5.544,2.3004481438547373
5.548,2.3394730731379241
5.552,2.3612619919877034
5.556,2.3784980024211109
5.56,2.3983356748067308
5.564,2.4061406606633682
5.568,2.387929026997881
5.572,2.3632132384518627
5.576,2.3557334603392519
5.58,2.3586603300354909
5.584,2.3502049286908004
5.588,2.3443511892983224
5.592,2.3508553441788536
5.596,2.3628880307078362
5.6,2.3671157313801814
5.604,2.3661401081481017
5.608,2.376221548212925
5.612,2.3921567276702262
5.616,2.3843517418135889
5.62,2.3635384461958893
5.624,2.3602863687556237
5.628,2.3710182243085001
5.632,2.3752459249808453
5.636,2.3697173933323938
5.64,2.3684165623562876
5.644,2.3794736256531905
5.648,2.3856525727896951
5.652,2.3664653158921283
5.656,2.3511805519228801
5.66,2.3599611610115971
5.664,2.3771971714450046
5.668,2.3892298579739872
5.672,2.3950835973664653
5.676,2.4090675303596072
5.68,2.4220758401206695
5.684,2.4158968929841649
5.688,2.4067910761514213
5.692,2.4171977239602711
5.696,2.4373606040899176
5.7,2.4415883047622629
5.704,2.4383362273219973
5.708,2.4500437061069533
5.712,2.4744342869089451
5.716,2.4793124030693434
5.72,2.4708570017246529
5.724,2.4747594946529716
5.728,2.4932963360624854
5.732,2.5033777761273086
5.736,2.5004509064310696
5.74,2.5050038148474414
5.744,2.5176869168644771
5.748,2.5186625400965568
5.752,2.5063046458235476
5.756,2.5007761141750962
5.76,2.5066298535675742
5.764,2.5108575542399194
5.768,2.4893938431341667
5.772,2.4689057552604936
5.776,2.4578486919635907
5.78,2.442238720250316
5.784,2.4093927381036337
5.788,2.3843517418135889
5.792,2.3810996643733233
5.796,2.3911811044381466
5.8,2.3797988333972171
5.804,2.3489040977146942
5.808,2.335895787953632
5.812,2.3404486963700037
5.816,2.3401234886259772
5.82,2.3280908020969946
5.824,2.3202858162403572
5.828,2.3228874781925697
5.832,2.324838724656729
5.836,2.3141068691038527
5.84,2.3128060381277464
5.844,2.3215866472164635
5.848,2.3284160098410212
5.852,2.3170337388000917
5.856,2.304350636783056
5.86,2.313131245871773
5.864,2.3202858162403572
5.868,2.3134564536157995
5.872,2.3085783374554012
5.876,2.3180093620321713
5.88,2.3293916330731008
5.884,2.3254891401447821
5.888,2.3115052071516402
5.892,2.3082531297113746
5.896,2.3170337388000917
5.9,2.3111799994076136
5.904,2.3066270909912419
5.908,2.3238631014246494
5.912,2.3495545132027473
5.916,2.3537822138750926
5.92,2.3336193337454461
5.924,2.3267899711208884
5.928,2.338822657649871
5.932,2.3430503583222162
5.936,2.3329689182573929
5.94,2.3345949569775257
5.944,2.3498797209467739
5.948,2.3508553441788536
5.952,2.3313428795372602
5.956,2.3186597775202245
5.96,2.3310176717932336
5.964,2.3443511892983224
5.968,2.3397982808819506
5.972,2.3371966189297382
5.976,2.3459772280184552
5.98,2.3537822138750926
5.984,2.3420747350901365
5.988,2.3323185027693398
5.992,2.3440259815542959
5.996,2.3586603300354909
6,2.350530136434827
6.004,2.3241883091686759
6.008,2.3222370627045166
6.012,2.3489040977146942
6.016,2.3671157313801814
6.02,2.3615871997317299
6.024,2.3580099145474378
6.028,2.3706930165644735
6.032,2.3726442630286328
6.036,2.3602863687556237
6.04,2.3550830448511988
6.044,2.3612619919877034
6.048,2.3619124074757565
6.052,2.3489040977146942
6.056,2.3384974499058444
6.06,2.3502049286908004
6.064,2.3693921855883673
6.068,2.3742703017487656
6.072,2.3716686397965532
6.076,2.3778475869330578
6.08,2.3794736256531905
6.084,2.3690669778443407
6.088,2.3541074216191191
6.092,2.3554082525952253
6.096,2.3635384461958893
6.1,2.3521561751549598
6.104,2.335895787953632
6.108,2.3433755660662428
6.112,2.3710182243085001
6.116,2.3840265340695623
6.12,2.3758963404688984
6.124,2.3784980024211109
6.128,2.3931323509023059
6.132,2.4041894141992088
6.136,2.4126448155438993
6.14,2.4237018788408022
6.144,2.4402874737861566
6.148,2.4558974454994313
6.152,2.4458160054346081
6.156,2.434108526649652
6.16,2.4383362273219973
6.164,2.4383362273219973
6.168,2.4126448155438993
6.172,2.3830509108374827
6.176,2.3863029882777482
6.18,2.4087423226155806
6.184,2.4175229317042977
6.188,2.4051650374312885
6.192,2.3889046502299607
6.196,2.3814248721173499
6.2,2.3713434320525266
6.204,2.3537822138750926
6.208,2.3550830448511988
6.212,2.3765467559569515
6.216,2.3843517418135889
6.22,2.3719938475405797
6.224,2.3661401081481017
6.228,2.3765467559569515
6.232,2.3830509108374827
6.236,2.3729694707726594
6.24,2.370367808820447
6.244,2.3778475869330578
6.248,2.382075287605403
6.252,2.382075287605403
6.256,2.4035389987111557
6.26,2.4669545087963343
6.264,2.5606143390759826
6.268,2.6698841410689056
6.272,2.8041949393518735
6.276,2.9323267904983368
6.28,2.9876121069828514
6.284,2.8806187591981143
6.288,2.6633799861883745
6.292,2.4474420441547409
6.296,2.310204376175534
6.3,2.2607727990834974
6.304,2.2633744610357098
6.308,2.3017489748308435
6.312,2.3472780589945614
6.316,2.3697173933323938
6.32,2.362237615219783
6.324,2.3609367842436768
6.328,2.3723190552846063
6.332,2.3752459249808453
6.336,2.3628880307078362
6.34,2.3567090835713316
6.344,2.3625628229638096
6.348,2.3596359532675706
6.352,2.350530136434827
6.356,2.347603266738588
6.36,2.3583351222914644
6.364,2.3723190552846063
6.368,2.3635384461958893
6.372,2.3550830448511988
6.376,2.3710182243085001
6.38,2.3954088051104918
6.384,2.3970348438306246
6.388,2.3892298579739872
6.392,2.4009373367589433
6.396,2.4178481394483242
6.4,2.4126448155438993
6.404,2.3993112980388105
6.408,2.3980104670627043
6.412,2.4054902451753151
6.416,2.404839829687262
6.42,2.3915063121821731
6.424,2.3941079741343856
6.428,2.419474178168457
6.432,2.4415883047622629
6.436,2.4396370582981035
6.44,2.434108526649652
6.444,2.4415883047622629
6.448,2.4441899667144753
6.452,2.4402874737861566
6.456,2.4487428751308471
6.46,2.4734586636768654
6.464,2.4916702973423526
6.468,2.4932963360624854
6.472,2.4858165579498746
6.476,2.494271959294565
6.48,2.5163860858883709
6.484,2.5180121246085037
6.488,2.5176869168644771
6.492,2.5306952266255394
6.496,2.5557362229155842
6.5,2.5638664165162481
6.504,2.5625655855401419
6.508,2.5671184939565137
6.512,2.5804520114616025
6.516,2.5827284656697884
6.52,2.5693949481646996
6.524,2.557362261635717
6.528,2.5567118461476639
6.532,2.5502076912671328
6.536,2.5267927336972207
6.54,2.5089063077757601
6.544,2.4988248677109368
6.548,2.4773611566051841
6.552,2.4490680828748737
6.556,2.4331329034175724
6.56,2.4347589421377052
6.564,2.4334581111615989
6.568,2.413620438775979
6.572,2.3950835973664653
6.576,2.387929026997881
6.58,2.3876038192538545
6.584,2.3768719637009781
6.588,2.3612619919877034
6.592,2.3625628229638096
6.596,2.3700426010764204
6.6,2.3606115764996503
6.604,2.3401234886259772
6.608,2.335895787953632
6.612,2.3456520202744287
6.616,2.34174952734611
6.62,2.3206110239843838
6.624,2.3154077000799589
6.628,2.3238631014246494
6.632,2.32191185496049
6.636,2.3076027142233215
6.64,2.3092287529434543
6.644,2.3241883091686759
6.648,2.3319932950253133
6.652,2.3163833233120386
6.656,2.3124808303837199
6.66,2.3280908020969946
6.664,2.3430503583222162
6.668,2.3401234886259772
6.672,2.335895787953632
6.676,2.344676397042349
6.68,2.3518309674109332
6.684,2.3378470344177913
6.688,2.3251639324007556
6.692,2.3339445414894726
6.696,2.3427251505781896
6.7,2.3232126859365962
6.704,2.2991473128786311
6.708,2.3027245980629232
6.712,2.3228874781925697
6.716,2.3310176717932336
6.72,2.3228874781925697
6.724,2.3225622704485431
6.728,2.3365462034416851
6.732,2.3466276435065083
6.736,2.3391478653938975
6.74,2.335895787953632
6.744,2.3456520202744287
6.748,2.3541074216191191
6.752,2.3397982808819506
6.756,2.327765594352968
6.76,2.3345949569775257
6.764,2.3430503583222162
6.768,2.3362209956976585
6.772,2.3280908020969946
6.776,2.3375218266737647
6.78,2.3524813828989863
6.784,2.3472780589945614
6.788,2.335895787953632
6.792,2.3482536822266411
6.796,2.3648392771719955
6.8,2.3632132384518627
6.804,2.3515057596669067
6.808,2.3492293054587208
6.812,2.3544326293631457
6.816,2.3557334603392519
6.82,2.3524813828989863
6.824,2.3560586680832785
6.828,2.3713434320525266
6.832,2.3804492488852702
6.836,2.3739450940047391
6.84,2.3736198862607125
6.844,2.3963844283425715
6.848,2.4162221007281914
6.852,2.4087423226155806
6.856,2.3999617135268636
6.86,2.413620438775979
6.864,2.4302060337213334
6.868,2.4256531253049616
6.872,2.4246775020728819
6.876,2.4428891357383691
6.88,2.4637024313560687
6.884,2.4689057552604936
6.888,2.4614259771478828
6.892,2.4584991074516438
6.896,2.462726808123989
6.9,2.45979993842775
6.904,2.4445151744585019
6.908,2.4409378892742097
6.912,2.4438647589704487
6.916,2.4347589421377052
6.92,2.4201245936565101
6.924,2.4211002168885898
6.928,2.422401047864696
6.932,2.4116691923118196
6.936,2.3986608825507574
6.94,2.4035389987111557
6.944,2.4152464774961118
6.948,2.4246775020728819
6.952,2.4162221007281914
6.956,2.4119944000558462
6.96,2.4230514633527491
6.964,2.4295556182332803
6.968,2.422401047864696
6.972,2.4295556182332803
6.976,2.4471168364107143
6.98,2.4630520158680156
6.984,2.456873068731511
6.988,2.4477672518987674
6.992,2.4672797165403608
6.996,2.5261423182091676
7,2.5963871909189038
7.004,2.6884209824784193
7.008,2.8406182066828478
7.012,2.9882625224709045
7.016,3.0640359268290922
7.02,2.9928154308872763
7.024,2.8146015871607233
7.028,2.6064686309837271
7.032,2.4331329034175724
7.036,2.324838724656729
7.04,2.3004481438547373
7.044,2.3375218266737647
7.048,2.3853273650456686
7.052,2.4116691923118196
7.056,2.431181656953413
7.06,2.4516697448270861
7.064,2.4614259771478828
7.068,2.453946199035272
7.072,2.4477672518987674
7.076,2.4578486919635907
7.08,2.4682553397724405
7.084,2.4653284700762015
7.088,2.4604503539158031
7.092,2.4679301320284139
7.096,2.4763855333731044
7.1,2.4702065862365998
7.104,2.4607755616598297
7.108,2.4695561707485467
7.112,2.4841905192297418
7.116,2.4838653114857152
7.12,2.4734586636768654
7.124,2.4783367798372637
7.128,2.4988248677109368
7.132,2.5095567232638132
7.136,2.497198828990804
7.14,2.4858165579498746
7.144,2.4916702973423526
7.148,2.5024021528952289
7.152,2.5030525683832821
7.156,2.5053290225914679
7.16,2.5241910717450082
7.164,2.5414270821784157
7.168,2.5365489660180174
7.172,2.5303700188815128
7.176,2.5414270821784157
7.18,2.5619151700520888
7.184,2.5706957791408058
7.188,2.5713461946288589
7.192,2.5807772192056291
7.196,2.5954115676868241
7.2,2.5960619831748772
7.204,2.5928099057346117
7.208,2.6110215394000988
7.212,2.6402902363624889
7.216,2.6503716764273122
7.22,2.6402902363624889
7.224,2.6419162750826217
7.228,2.660778324236162
7.232,2.6802907888777554
7.236,2.6763882959494367
7.24,2.6767135036934633
7.244,2.6887461902224459
7.248,2.695250345102977
7.252,2.6841932818060741
7.256,2.6750874649733305
7.26,2.677689126925543
7.264,2.6770387114374898
7.268,2.6565506235638168
7.272,2.6357373279461171
7.276,2.6295583808096126
7.28,2.6269567188574001
7.284,2.6090702929359395
7.288,2.5846797121339478
7.292,2.5742730643250979
7.296,2.5716714023728855
7.3,2.5567118461476639
7.304,2.5417522899224423
7.308,2.5332968885777518
7.312,2.5404514589463361
7.316,2.5365489660180174
7.32,2.5180121246085037
7.324,2.5072802690556273
7.328,2.5163860858883709
7.332,2.5219146175368223
7.336,2.508255892287707
7.34,2.4962232057587244
7.344,2.4984996599669103
7.348,2.4991500754549634
7.352,2.4851661424618214
7.356,2.4828896882536355
7.36,2.4991500754549634
7.364,2.5115079697279725
7.368,2.5076054767996538
7.372,2.4988248677109368
7.376,2.5024021528952289
7.38,2.5128088007040787
7.384,2.5040281916153617
7.388,2.4897190508781932
7.392,2.4871173889259808
7.396,2.4994752831989899
7.4,2.5024021528952289
7.404,2.4978492444788571
7.408,2.5069550613116007
7.412,2.5323212653456721
7.416,2.5440287441306282
7.42,2.5401262512023095
7.424,2.5388254202262033
7.428,2.5502076912671328
7.432,2.5563866384036373
7.436,2.5466304060828406
7.44,2.5381750047381502
7.444,2.542727913154522
7.448,2.5375245892500971
7.452,2.519963371072663
7.456,2.5144348394242115
7.46,2.5319960576016456
7.464,2.5524841454753187
7.468,2.5511833144992124
7.472,2.5391506279702298
7.476,2.5391506279702298
7.48,2.5459799905947875
7.484,2.5446791596186813
7.488,2.5394758357142564
7.492,2.5482564448029734
7.496,2.560289131331956
7.5,2.554435391939478
7.504,2.5323212653456721
7.508,2.5225650330248754
7.512,2.5245162794890348
7.516,2.5225650330248754
7.52,2.5163860858883709
7.524,2.5206137865607161
7.528,2.5404514589463361
7.532,2.5557362229155842
7.536,2.5420774976664688
7.54,2.5310204343695659
7.544,2.5362237582739908
7.548,2.5368741737620439
7.552,2.5248414872330613
7.556,2.5189877478405833
7.56,2.5251666949770879
7.564,2.5274431491852738
7.568,2.5063046458235476
7.572,2.4851661424618214
7.576,2.4783367798372637
7.58,2.4867921811819542
7.584,2.4893938431341667
7.588,2.4968736212467775
7.592,2.5193129555846099
7.596,2.5433783286425751
7.6,2.5437035363866016
7.604,2.5306952266255394
7.608,2.5430531208985485
7.612,2.577199934021337
7.616,2.600614891591249
7.62,2.6080946697038598
7.624,2.614598824584391
7.628,2.6230542259290814
7.632,2.6246802646492142
7.636,2.6149240323284175
7.64,2.6152492400724441
7.644,2.629233173065586
7.648,2.6393146131304093
7.652,2.6289079653215595
7.656,2.6172004865366034
7.66,2.6181761097686831
7.664,2.620452563976869
7.668,2.6054930077516474
7.672,2.5856553353660274
7.676,2.5794763882295229
7.68,2.5827284656697884
7.684,2.5798015959735494
7.688,2.5739478565810714
7.692,2.5788259727414697
7.696,2.5885822050622664
7.7,2.5807772192056291
7.704,2.5635412087722216
7.708,2.5619151700520888
7.712,2.5814276346936822
7.716,2.5911838670144789
7.72,2.5817528424377088
7.724,2.5755738953012042
7.728,2.5856553353660274
7.732,2.5869561663421337
7.736,2.5788259727414697
7.74,2.588907412806293
7.744,2.6360625356901437
7.748,2.7066326161439065
7.752,2.7911866295908112
7.756,2.9063101709762122
7.76,3.0263118285220116
7.764,3.1111910497129429
7.768,3.0698896662215702
7.772,2.9095622484164778
7.776,2.7183400949288625
7.78,2.5687445326766465
7.784,2.4728082481888123
7.788,2.4357345653697848
7.792,2.4487428751308471
7.796,2.4819140650215559
7.8,2.5066298535675742
7.804,2.5147600471682381
7.808,2.5241910717450082
7.812,2.5411018744343892
7.816,2.5482564448029734
7.82,2.545654782850761
7.824,2.5495572757790796
7.828,2.563216001028195
7.832,2.566142870724434
7.836,2.5469556138268672
7.84,2.5394758357142564
7.844,2.5482564448029734
7.848,2.5531345609633718
7.852,2.5391506279702298
7.856,2.5349229272978846
7.86,2.5482564448029734
7.864,2.5596387158439029
7.868,2.5524841454753187
7.872,2.5440287441306282
7.876,2.5469556138268672
7.88,2.5560614306596108
7.884,2.5518337299872655
7.888,2.5433783286425751
7.892,2.5498824835231062
7.896,2.5674437017005403
7.9,2.5654924552363809
7.904,2.5541101841954514
7.908,2.5596387158439029
7.912,2.5739478565810714
7.916,2.5723218178609386
7.92,2.5541101841954514
7.924,2.5472808215708937
7.928,2.557362261635717
7.932,2.5645168320043012
7.936,2.5524841454753187
7.94,2.5560614306596108
7.944,2.5762243107892573
7.948,2.5937855289666913
7.952,2.5960619831748772
7.956,2.5983384373830631
7.96,2.6191517330007628
7.964,2.6334608737379313
7.968,2.6279323420894798
7.972,2.626306303369347
7.976,2.6386641976423562
7.98,2.6555750003317371
7.984,2.6552497925877105
7.988,2.6454935602669138
7.992,2.6503716764273122
7.996,2.6659816481405869
8,2.6653312326525338
8.004,2.6526481306354981
8.008,2.6510220919153653
8.012,2.6559002080757637
8.016,2.6386641976423562
8.02,2.6009400993352756
8.024,2.5726470256049652
8.028,2.5625655855401419
8.032,2.5446791596186813
8.036,2.5102071387518663
8.04,2.482564480509609
8.044,2.4799628185573965
8.048,2.4760603256290779
8.052,2.4513445370830595
8.056,2.4373606040899176
8.06,2.4490680828748737
8.064,2.4558974454994313
8.068,2.4334581111615989
8.072,2.4113439845677931
8.076,2.4155716852401383
8.08,2.4243522943288554
8.084,2.4129700232879259
8.088,2.4006121290149167
8.092,2.4051650374312885
8.096,2.416547308472218
8.1,2.4041894141992088
8.104,2.3840265340695623
8.108,2.3765467559569515
8.112,2.3892298579739872
8.116,2.3970348438306246
8.12,2.3895550657180138
8.124,2.3895550657180138
8.128,2.4012625445029698
8.132,2.4012625445029698
8.136,2.3843517418135889
8.14,2.379148417909164
8.144,2.3963844283425715
8.148,2.4006121290149167
8.152,2.3824004953494295
8.156,2.3742703017487656
8.16,2.3797988333972171
8.164,2.3843517418135889
8.168,2.3742703017487656
8.172,2.3524813828989863
8.176,2.3482536822266411
8.18,2.3541074216191191
8.184,2.3524813828989863
8.188,2.347603266738588
8.192,2.3485788899706677
8.196,2.3615871997317299
8.2,2.3619124074757565
8.204,2.3567090835713316
8.208,2.359310745523544
8.212,2.3684165623562876
8.216,2.3632132384518627
8.22,2.3430503583222162
8.224,2.3427251505781896
8.228,2.3612619919877034
8.232,2.3726442630286328
8.236,2.3599611610115971
8.24,2.3573594990593847
8.244,2.362237615219783
8.248,2.3632132384518627
8.252,2.3394730731379241
8.256,2.318984985264251
8.26,2.3235378936806228
8.264,2.3362209956976585
8.268,2.3362209956976585
8.272,2.3349201647215523
8.276,2.3440259815542959
8.28,2.3515057596669067
8.284,2.3453268125304021
8.288,2.3365462034416851
8.292,2.3423999428341631
8.296,2.3554082525952253
8.3,2.3511805519228801
8.304,2.3404486963700037
8.308,2.3397982808819506
8.312,2.3423999428341631
8.316,2.3326437105133664
8.32,2.316058115568012
8.324,2.3150824923359323
8.328,2.3362209956976585
8.332,2.3498797209467739
8.336,2.3410991118580569
8.34,2.3280908020969946
8.344,2.3319932950253133
8.348,2.338822657649871
8.352,2.3368714111857116
8.356,2.3352453724655788
8.36,2.3397982808819506
8.364,2.3375218266737647
8.368,2.327765594352968
8.372,2.324838724656729
8.376,2.3420747350901365
8.38,2.3619124074757565
8.384,2.3664653158921283
8.388,2.3674409391242079
8.392,2.3837013263255358
8.396,2.3983356748067308
8.4,2.39085589669412
8.404,2.3752459249808453
8.408,2.3716686397965532
8.412,2.3775223791890312
8.416,2.370367808820447
8.42,2.3456520202744287
8.424,2.3368714111857116
8.428,2.3521561751549598
8.432,2.3648392771719955
8.436,2.3511805519228801
8.44,2.3368714111857116
8.444,2.3384974499058444
8.448,2.335895787953632
8.452,2.3193101930082776
8.456,2.307277506479295
8.46,2.3176841542881448
8.464,2.3287412175850477
8.468,2.3212614394724369
8.472,2.3092287529434543
8.476,2.3170337388000917
8.48,2.3310176717932336
8.484,2.3290664253290743
8.488,2.316058115568012
8.492,2.3176841542881448
8.496,2.3336193337454461
8.5,2.3472780589945614
8.504,2.3716686397965532
8.508,2.4315068646974396
8.512,2.5209389943047427
8.516,2.6337860814819578
8.52,2.7453323376830667
8.524,2.8334636363142636
8.528,2.8406182066828478
8.532,2.7258198730414733
8.536,2.5254919027211145
8.54,2.3554082525952253
8.544,2.2754071475646924
8.548,2.2474392815784086
8.552,2.238333464745665
8.556,2.2523173977388069
8.56,2.2871146263496485
8.564,2.3186597775202245
8.568,2.3251639324007556
8.572,2.3173589465441182
8.576,2.3163833233120386
8.58,2.3141068691038527
8.584,2.3050010522711091
8.588,2.2997977283666842
8.592,2.3098791684315074
8.596,2.3215866472164635
8.6,2.3258143478888087
8.604,2.3274403866089415
8.608,2.3469528512505349
8.612,2.3710182243085001
8.616,2.379148417909164
8.62,2.3726442630286328
8.624,2.3726442630286328
8.628,2.3837013263255358
8.632,2.3905306889500935
8.636,2.3833761185815092
8.64,2.3814248721173499
8.644,2.3869534037658013
8.648,2.3892298579739872
8.652,2.3810996643733233
8.656,2.3745955094927922
8.66,2.3804492488852702
8.664,2.3902054812060669
8.668,2.3840265340695623
8.672,2.3706930165644735
8.676,2.3726442630286328
8.68,2.3905306889500935
8.684,2.3921567276702262
8.688,2.3902054812060669
8.692,2.4019129599910229
8.696,2.4175229317042977
8.7,2.4230514633527491
8.704,2.4217506323766429
8.708,2.4272791640250944
8.712,2.4464664209226612
8.716,2.453946199035272
8.72,2.4523201603151392
8.724,2.465653677820228
8.728,2.4932963360624854
8.732,2.5160608781443443
8.736,2.5222398252808489
8.74,2.5319960576016456
8.744,2.5459799905947875
8.748,2.5537849764514249
8.752,2.5398010434582829
8.756,2.52874398016138
8.76,2.534597719553858
8.764,2.542727913154522
8.768,2.5398010434582829
8.772,2.5336220963217784
8.776,2.5371993815060705
8.78,2.5385002124821767
8.784,2.5209389943047427
8.788,2.4926459205744322
8.792,2.482564480509609
8.796,2.4806132340454496
8.8,2.4594747306837235
8.804,2.4295556182332803
8.808,2.4149212697520852
8.812,2.41069356907974
8.816,2.396709636086598
8.82,2.3726442630286328
8.824,2.3661401081481017
8.828,2.3755711327248719
8.832,2.3745955094927922
8.836,2.3518309674109332
8.84,2.3433755660662428
8.844,2.3589855377795175
8.848,2.3632132384518627
8.852,2.3482536822266411
8.856,2.3407739041140303
8.86,2.3615871997317299
8.864,2.3882542347419076
8.868,2.3928071431582794
8.872,2.3817500798613764
8.876,2.3794736256531905
8.88,2.3837013263255358
8.884,2.3778475869330578
8.888,2.3713434320525266
8.892,2.3807744566292968
8.896,2.3921567276702262
8.9,2.3928071431582794
8.904,2.3804492488852702
8.908,2.3824004953494295
8.912,2.4006121290149167
8.916,2.4032137909671292
8.92,2.3895550657180138
8.924,2.3837013263255358
8.928,2.3928071431582794
8.932,2.4080919071275275
8.936,2.4188237626804039
8.94,2.431181656953413
8.944,2.4516697448270861
8.948,2.4565478609874845
8.952,2.4445151744585019
8.956,2.4370353963458911
8.96,2.4490680828748737
8.964,2.4643528468441218
8.968,2.45979993842775
8.972,2.4464664209226612
8.976,2.4474420441547409
8.98,2.4591495229396969
8.984,2.4575234842195641
8.988,2.4506941215950064
8.992,2.4565478609874845
8.996,2.4708570017246529
9,2.4666293010523077
9.004,2.4552470300113782
9.008,2.4578486919635907
9.012,2.468580547516467
9.016,2.4695561707485467
9.02,2.4630520158680156
9.024,2.4679301320284139
9.028,2.4806132340454496
9.032,2.4806132340454496
9.036,2.4698813784925733
9.04,2.4669545087963343
9.044,2.482564480509609
9.048,2.4897190508781932
9.052,2.4848409347177949
9.056,2.4815888572775293
9.06,2.4984996599669103
9.064,2.5098819310078397
9.068,2.5027273606392555
9.072,2.4988248677109368
9.076,2.5115079697279725
9.08,2.5222398252808489
9.084,2.5160608781443443
9.088,2.5079306845436804
9.092,2.5219146175368223
9.096,2.5407766666903626
9.1,2.5433783286425751
9.104,2.5319960576016456
9.108,2.5310204343695659
9.112,2.5362237582739908
9.116,2.5358985505299643
9.12,2.5326464730896987
9.124,2.5433783286425751
9.128,2.5635412087722216
9.132,2.5752486875571776
9.136,2.583053673413815
9.14,2.5983384373830631
9.144,2.6211029794649221
9.148,2.6266315111133736
9.152,2.6084198774478864
9.156,2.5986636451270897
9.16,2.6123223703762051
9.164,2.6285827575775329
9.168,2.6230542259290814
9.172,2.6110215394000988
9.176,2.6061434232397005
9.18,2.6015905148233287
9.184,2.5866309585981071
9.188,2.5723218178609386
9.192,2.5706957791408058
9.196,2.5840292966458946
9.2,2.5895578282943461
9.204,2.585980543110054
9.208,2.5872813740861602
9.212,2.59768802189501
9.216,2.5989888528711163
9.22,2.5911838670144789
9.224,2.5885822050622664
9.228,2.6045173845195677
9.232,2.620452563976869
9.236,2.6185013175127096
9.24,2.6198021484888159
9.244,2.6347617047140375
9.248,2.6451683525228873
9.252,2.6552497925877105
9.256,2.695250345102977
9.26,2.7814303972700145
9.264,2.9111882871366106
9.268,3.0614342648768798
9.272,3.1895661160233431
9.276,3.2295666685386095
9.28,3.1141179194091819
9.284,2.8867977063346189
9.288,2.6545993770996574
9.292,2.5212642020487692
9.296,2.4984996599669103
9.3,2.514109631680185
9.304,2.5424027054104954
9.308,2.5788259727414697
9.312,2.6110215394000988
9.316,2.6217533949529752
9.32,2.6168752787925769
9.324,2.6256558878812939
9.328,2.6451683525228873
9.332,2.6474448067310732
9.336,2.6334608737379313
9.34,2.6324852505058516
9.344,2.6536237538675778
9.348,2.6711849720450118
9.352,2.66663206362864
9.356,2.6669572713726666
9.36,2.6802907888777554
9.364,2.6871201515023131
9.368,2.6822420353419147
9.372,2.6851689050381538
9.376,2.704030954191694
9.38,2.7212669646251015
9.384,2.7222425878571812
9.388,2.7173644716967829
9.392,2.7219173801131546
9.396,2.7310231969458982
9.4,2.7303727814578451
9.404,2.7280963272496592
9.408,2.7407794292666949
9.412,2.7563894009799697
9.416,2.7511860770755447
9.42,2.7349256898742169
9.424,2.7336248588981107
9.428,2.7505356615874916
9.432,2.7635439713485539
9.436,2.7638691790925805
9.44,2.7736254114133772
9.444,2.7963899534952361
9.448,2.8080974322801922
9.452,2.8084226400242187
9.456,2.8207805342972279
9.46,2.8487484002835117
9.464,2.8685860726691317
9.468,2.867610449437052
9.472,2.8653339952288661
9.476,2.8832204211503267
9.48,2.8998060160956811
9.484,2.8981799773755483
9.488,2.8981799773755483
9.492,2.9147655723209027
9.496,2.9404569840990007
9.5,2.9560669558122754
9.504,2.9547661248361692
9.508,2.9619206952047534
9.512,2.9716769275255501
9.516,2.9641971494129393
9.52,2.9385057376348414
9.524,2.9274486743379384
9.528,2.9274486743379384
9.532,2.9206193117133807
9.536,2.8975295618874952
9.54,2.8724885655974504
9.544,2.8536265164439101
9.548,2.8344392595463432
9.552,2.8019184851436876
9.556,2.7690725029970054
9.56,2.75541377774789
9.564,2.758340647444129
9.568,2.746633168659173
9.572,2.7277711195056327
9.576,2.7245190420653671
9.58,2.732649235666031
9.584,2.7329744434100576
9.588,2.7300475737138186
9.592,2.7346004821301904
9.596,2.7346004821301904
9.6,2.715088017488597
9.604,2.6998032535193488
9.608,2.7134619787684642
9.612,2.7349256898742169
9.616,2.7336248588981107
9.62,2.7157384329766501
9.624,2.6994780457753222
9.628,2.7033805387036409
9.632,2.7163888484647032
9.636,2.7102099013281986
9.64,2.7082586548640393
9.644,2.7212669646251015
9.648,2.7300475737138186
9.652,2.7196409259049688
9.656,2.7059822006558534
9.66,2.7102099013281986
9.664,2.718014887184836
9.668,2.7128115632804111
9.672,2.706957823887933
9.676,2.7134619787684642
9.68,2.7284215349936858
9.684,2.7342752743861638
9.688,2.7362265208503231
9.692,2.7459827531711198
9.696,2.7547633622598369
9.7,2.7437062989629339
9.704,2.7232182110892609
9.708,2.7241938343213405
9.712,2.7411046370107215
9.716,2.7359013131062966
9.72,2.7128115632804111
9.724,2.7072830316319596
9.728,2.7219173801131546
9.732,2.729722365969792
9.736,2.7206165491370484
9.74,2.7186653026728891
9.744,2.7303727814578451
9.748,2.7349256898742169
9.752,2.7235434188332874
9.756,2.7115107323043048
9.76,2.7089090703520924
9.764,2.7089090703520924
9.768,2.6955755528470036
9.772,2.677689126925543
9.776,2.6763882959494367
9.78,2.6877705669903662
9.784,2.6828924508299679
9.788,2.6757378804613836
9.792,2.6763882959494367
9.796,2.677689126925543
9.8,2.6741118417412508
9.804,2.6692337255808525
9.808,2.6799655811337288
9.812,2.6968763838231098
9.816,2.6962259683350567
9.82,2.677689126925543
9.824,2.669558933324879
9.828,2.6741118417412508
9.832,2.6715101797890384
9.836,2.6568758313078433
9.84,2.6516725074034184
9.844,2.657851454539923
9.848,2.6614287397242151
9.852,2.6559002080757637
9.856,2.6536237538675778
9.86,2.6734614262531977
9.864,2.6991528380312957
9.868,2.7024049154715613
9.872,2.698177214799216
9.876,2.7030553309596144
9.88,2.7092342780961189
9.884,2.7030553309596144
9.888,2.68646973601426
9.892,2.6874453592463396
9.896,2.7027301232155878
9.9,2.6965511760790832
9.904,2.6728110107651446
9.908,2.6598027010040823
9.912,2.657851454539923
9.916,2.6464691834989935
9.92,2.620452563976869
9.924,2.6113467471441254
9.928,2.6207777717208955
9.932,2.6279323420894798
9.936,2.6230542259290814
9.94,2.6217533949529752
9.944,2.632160042761825
9.948,2.6305340040416922
9.952,2.6123223703762051
9.956,2.600614891591249
9.96,2.6041921767755412
9.964,2.6155744478164706
9.968,2.6142736168403644
9.972,2.6064686309837271
9.976,2.6058182154956739
9.98,2.6139484090963379
9.984,2.6253306801372673
9.988,2.6575262467958964
9.992,2.7365517285943497
9.996,2.8480979847954586
10,2.9778558746620547
10.004,3.0939550392795354
10.008,3.1671267816855107
10.012,3.1241993594740052
10.016,2.9489123854436912
10.02,2.7147628097445704
10.024,2.52874398016138
10.028,2.4519949525711127
10.032,2.442238720250316
10.036,2.4513445370830595
10.04,2.4754099101410247
10.044,2.5131340084481053
10.048,2.5459799905947875
10.052,2.5502076912671328
10.056,2.5466304060828406
10.06,2.5554110151715577
10.064,2.5671184939565137
10.068,2.5586630926118232
10.072,2.5463051983388141
10.076,2.5443539518746547
10.08,2.545654782850761
10.084,2.5329716808337253
10.088,2.5209389943047427
10.092,2.5313456421135925
10.096,2.5482564448029734
10.1,2.5482564448029734
10.104,2.5378497969941236
10.108,2.5381750047381502
10.112,2.5521589377312921
10.116,2.5567118461476639
10.12,2.5466304060828406
10.124,2.5531345609633718
10.128,2.5664680784684606
10.132,2.5693949481646996
10.136,2.5638664165162481
10.14,2.5684193249326199
10.144,2.5846797121339478
10.148,2.5915090747585054
10.152,2.583053673413815
10.156,2.5765495185332838
10.16,2.5833788811578415
10.164,2.5911838670144789
10.168,2.5755738953012042
10.172,2.5589883003558498
10.176,2.5654924552363809
10.18,2.5791511804854963
10.184,2.583053673413815
10.188,2.5807772192056291
10.192,2.5924846979905851
10.196,2.611671954888152
10.2,2.6198021484888159
10.204,2.6217533949529752
10.208,2.6370381589222234
10.212,2.6598027010040823
10.216,2.6715101797890384
10.22,2.6728110107651446
10.224,2.6767135036934633
10.228,2.6932990986388177
10.232,2.6972015915671363
10.236,2.6880957747343928
10.24,2.6854941127821803
10.244,2.6932990986388177
10.248,2.6900470211985521
10.252,2.6669572713726666
10.256,2.6484204299631529
10.26,2.6513472996593919
10.264,2.6532985461235512
10.268,2.6315096272737719
10.272,2.6077694619598333
10.276,2.5980132296390366
10.28,2.5902082437823992
10.284,2.5664680784684606
10.288,2.5358985505299643
10.292,2.5167112936323974
10.296,2.5102071387518663
10.3,2.4910198818542995
10.304,2.4633772236120421
10.308,2.4575234842195641
10.312,2.4682553397724405
10.316,2.468580547516467
10.32,2.4500437061069533
10.324,2.4428891357383691
10.328,2.4506941215950064
10.332,2.4513445370830595
10.336,2.4363849808578379
10.34,2.4321572801854927
10.344,2.4487428751308471
10.348,2.462726808123989
10.352,2.4578486919635907
10.356,2.4471168364107143
10.36,2.4467916286666878
10.364,2.4477672518987674
10.368,2.4334581111615989
10.372,2.4207750091445632
10.376,2.4214254246326163
10.38,2.4367101886018645
10.384,2.4360597731138114
10.388,2.4315068646974396
10.392,2.4409378892742097
10.396,2.4542714067792986
10.4,2.4545966145233251
10.404,2.4438647589704487
10.408,2.4406126815301832
10.412,2.451019329339033
10.416,2.4565478609874845
10.42,2.4506941215950064
10.424,2.4493932906189002
10.428,2.456873068731511
10.432,2.4571982764755376
10.436,2.4458160054346081
10.44,2.4419135125062894
10.444,2.4513445370830595
10.448,2.4549218222673517
10.452,2.4467916286666878
10.456,2.4386614350660238
10.46,2.4399622660421301
10.464,2.439311850554077
10.468,2.4318320724414662
10.472,2.4363849808578379
10.476,2.4578486919635907
10.48,2.4659788855642546
10.484,2.4503689138509799
10.488,2.4305312414653599
10.492,2.4324824879295193
10.496,2.4471168364107143
10.5,2.4448403822025284
10.504,2.4344337343936786
10.508,2.4334581111615989
10.512,2.4428891357383691
10.516,2.4435395512264222
10.52,2.4285799950012006
10.524,2.4211002168885898
10.528,2.4357345653697848
10.532,2.4487428751308471
10.536,2.442238720250316
10.54,2.4370353963458911
10.544,2.4389866428100504
10.548,2.4331329034175724
10.552,2.416547308472218
10.556,2.4080919071275275
10.56,2.4233766710967757
10.564,2.4367101886018645
10.568,2.425327917560935
10.572,2.4097179458476603
10.576,2.4204498014005367
10.58,2.4441899667144753
10.584,2.4513445370830595
10.588,2.4428891357383691
10.592,2.4428891357383691
10.596,2.4565478609874845
10.6,2.4643528468441218
10.604,2.462726808123989
10.608,2.4715074172127061
10.612,2.4890686353901401
10.616,2.4965484135027509
10.62,2.4968736212467775
10.624,2.5020769451512024
10.628,2.5163860858883709
10.632,2.5219146175368223
10.636,2.5069550613116007
10.64,2.4916702973423526
10.644,2.4916702973423526
10.648,2.4841905192297418
10.652,2.4624016003799625
10.656,2.4474420441547409
10.66,2.4490680828748737
10.664,2.4542714067792986
10.668,2.4386614350660238
10.672,2.4243522943288554
10.676,2.4250027098169085
10.68,2.4289052027452271
10.684,2.4181733471923508
10.688,2.4025633754790761
10.692,2.4132952310319524
10.696,2.4367101886018645
10.7,2.442238720250316
10.704,2.425327917560935
10.708,2.4204498014005367
10.712,2.4298808259773068
10.716,2.4331329034175724
10.72,2.4184985549363773
10.724,2.4162221007281914
10.728,2.4402874737861566
10.732,2.4793124030693434
10.736,2.5261423182091676
10.74,2.6009400993352756
10.744,2.7225677956012078
10.748,2.8685860726691317
10.752,2.9671240191091783
10.756,2.9820835753343999
10.76,2.8698869036452379
10.764,2.6750874649733305
10.768,2.4653284700762015
10.772,2.3284160098410212
10.776,2.2884154573257547
10.78,2.3137816613598261
10.784,2.3407739041140303
10.788,2.3511805519228801
10.792,2.3589855377795175
10.796,2.370367808820447
10.8,2.3745955094927922
10.804,2.3788232101651374
10.808,2.3853273650456686
10.812,2.4051650374312885
10.816,2.4123196077998728
10.82,2.4015877522469964
10.824,2.3980104670627043
10.828,2.4119944000558462
10.832,2.4155716852401383
10.836,2.4051650374312885
10.84,2.4015877522469964
10.844,2.4129700232879259
10.848,2.4184985549363773
10.852,2.4015877522469964
10.856,2.3924819354142528
10.86,2.3989860902947839
10.864,2.4045146219432354
10.868,2.3863029882777482
10.872,2.373294678516686
10.876,2.3830509108374827
10.88,2.4019129599910229
10.884,2.3976852593186777
10.888,2.3954088051104918
10.892,2.4071162838954479
10.896,2.4237018788408022
10.9,2.4181733471923508
10.904,2.4054902451753151
10.908,2.4171977239602711
10.912,2.4419135125062894
10.916,2.4542714067792986
10.92,2.4506941215950064
10.924,2.4584991074516438
10.928,2.473783871420892
10.932,2.4799628185573965
10.936,2.4672797165403608
10.94,2.4516697448270861
10.944,2.4519949525711127
10.948,2.4643528468441218
10.952,2.4744342869089451
10.956,2.488418219902087
10.96,2.5163860858883709
10.964,2.5417522899224423
10.968,2.5420774976664688
10.972,2.5323212653456721
10.976,2.5450043673627079
10.98,2.5658176629804075
10.984,2.5664680784684606
10.988,2.5528093532193452
10.992,2.5537849764514249
10.996,2.5625655855401419
11,2.5547605996835046
11.004,2.5349229272978846
11.008,2.52874398016138
11.012,2.5274431491852738
11.016,2.514109631680185
11.02,2.4835401037416887
11.024,2.4669545087963343
11.028,2.4614259771478828
11.032,2.4565478609874845
11.036,2.4337833189056255
11.04,2.4149212697520852
11.044,2.416547308472218
11.048,2.4149212697520852
11.052,2.3859777805337217
11.056,2.370367808820447
11.06,2.3837013263255358
11.064,2.3954088051104918
11.068,2.3863029882777482
11.072,2.3706930165644735
11.076,2.3723190552846063
11.08,2.3765467559569515
11.084,2.3667905236361548
11.088,2.350530136434827
11.092,2.3619124074757565
11.096,2.3775223791890312
11.1,2.3667905236361548
11.104,2.3463024357624818
11.108,2.3472780589945614
11.112,2.3658149004040752
11.116,2.3765467559569515
11.12,2.3687417701003142
11.124,2.3710182243085001
11.128,2.3814248721173499
11.132,2.3755711327248719
11.136,2.3472780589945614
11.14,2.3313428795372602
11.144,2.3378470344177913
11.148,2.3502049286908004
11.152,2.3469528512505349
11.156,2.3433755660662428
11.16,2.3492293054587208
11.164,2.3502049286908004
11.168,2.3427251505781896
11.172,2.3410991118580569
11.176,2.3531317983870395
11.18,2.3690669778443407
11.184,2.3596359532675706
11.188,2.344676397042349
11.192,2.3453268125304021
11.196,2.353457006131066
11.2,2.3502049286908004
11.204,2.3378470344177913
11.208,2.3394730731379241
11.212,2.359310745523544
11.216,2.3596359532675706
11.22,2.3479284744826145
11.224,2.3456520202744287
11.228,2.3586603300354909
11.232,2.3658149004040752
11.236,2.3502049286908004
11.24,2.3404486963700037
11.244,2.3498797209467739
11.248,2.3554082525952253
11.252,2.3521561751549598
11.256,2.3459772280184552
11.26,2.3528065906430129
11.264,2.3645140694279689
11.268,2.3606115764996503
11.272,2.3544326293631457
11.276,2.3664653158921283
11.28,2.3765467559569515
11.284,2.362237615219783
11.288,2.3489040977146942
11.292,2.3524813828989863
11.296,2.3677661468682345
11.3,2.365164484916022
11.304,2.3524813828989863
11.308,2.3544326293631457
11.312,2.370367808820447
11.316,2.3775223791890312
11.32,2.3693921855883673
11.324,2.3736198862607125
11.328,2.3928071431582794
11.332,2.4041894141992088
11.336,2.3915063121821731
11.34,2.3755711327248719
11.344,2.3771971714450046
11.348,2.3827257030934561
11.352,2.3810996643733233
11.356,2.3817500798613764
11.36,2.396709636086598
11.364,2.4126448155438993
11.368,2.4132952310319524
11.372,2.4132952310319524
11.376,2.4295556182332803
11.38,2.448092459642794
11.384,2.4484176673868205
11.388,2.4373606040899176
11.392,2.4350841498817317
11.396,2.4370353963458911
11.4,2.428254787257174
11.404,2.4155716852401383
11.408,2.4162221007281914
11.412,2.4279295795131475
11.416,2.4230514633527491
11.42,2.3980104670627043
11.424,2.3810996643733233
11.428,2.3807744566292968
11.432,2.3778475869330578
11.436,2.3687417701003142
11.44,2.3648392771719955
11.444,2.3794736256531905
11.448,2.3833761185815092
11.452,2.3706930165644735
11.456,2.3635384461958893
11.46,2.3758963404688984
11.464,2.3872786115098279
11.468,2.3788232101651374
11.472,2.3775223791890312
11.476,2.3921567276702262
11.48,2.4035389987111557
11.484,2.4009373367589433
11.488,2.3889046502299607
11.492,2.3980104670627043
11.496,2.4376858118339442
11.5,2.4890686353901401
11.504,2.560289131331956
11.508,2.6796403733897023
11.512,2.818504080089042
11.516,2.9092370406724513
11.52,2.8692364881571848
11.524,2.7154132252326235
11.528,2.5245162794890348
11.532,2.3671157313801814
11.536,2.27280548561248
11.54,2.2438619963941164
11.544,2.269878615916241
11.548,2.3098791684315074
11.552,2.3238631014246494
11.556,2.3245135169127025
11.56,2.3352453724655788
11.564,2.3410991118580569
11.568,2.3310176717932336
11.572,2.3150824923359323
11.576,2.3206110239843838
11.58,2.3414243196020834
11.584,2.3508553441788536
11.588,2.3472780589945614
11.592,2.3531317983870395
11.596,2.3628880307078362
11.6,2.3628880307078362
11.604,2.359310745523544
11.608,2.3648392771719955
11.612,2.3778475869330578
11.616,2.3801240411412437
11.62,2.3726442630286328
11.624,2.3697173933323938
11.628,2.3804492488852702
11.632,2.3853273650456686
11.636,2.373294678516686
11.64,2.3713434320525266
11.644,2.3810996643733233
11.648,2.3872786115098279
11.652,2.3775223791890312
11.656,2.3729694707726594
11.66,2.3889046502299607
11.664,2.4041894141992088
11.668,2.3999617135268636
11.672,2.39085589669412
11.676,2.4002869212708902
11.68,2.4126448155438993
11.684,2.4097179458476603
11.688,2.404839829687262
11.692,2.4168725162162445
11.696,2.4305312414653599
11.7,2.4331329034175724
11.704,2.4263035407930147
11.708,2.4389866428100504
11.712,2.4721578327007592
11.716,2.4932963360624854
11.72,2.4910198818542995
11.724,2.4919955050863791
11.728,2.5037029838713352
11.732,2.5043533993593883
11.736,2.4955727902706712
11.74,2.5017517374071758
11.744,2.5284187724173535
11.748,2.5437035363866016
11.752,2.5401262512023095
11.756,2.5414270821784157
11.76,2.5534597687073983
11.764,2.5567118461476639
11.768,2.5339473040658049
11.772,2.517036501376424
11.776,2.517036501376424
11.78,2.5189877478405833
11.784,2.4952475825266447
11.788,2.4630520158680156
11.792,2.4471168364107143
11.796,2.448092459642794
11.8,2.4383362273219973
11.804,2.4142708542640321
11.808,2.4019129599910229
11.812,2.399636505782837
11.816,2.3856525727896951
11.82,2.3632132384518627
11.824,2.3596359532675706
11.828,2.3635384461958893
11.832,2.3583351222914644
11.836,2.3450016047863755
11.84,2.3384974499058444
11.844,2.3485788899706677
11.848,2.3580099145474378
11.852,2.3515057596669067
11.856,2.3410991118580569
11.86,2.3466276435065083
11.864,2.3528065906430129
11.868,2.3440259815542959
11.872,2.3368714111857116
11.876,2.3456520202744287
11.88,2.359310745523544
11.884,2.3583351222914644
11.888,2.3489040977146942
11.892,2.3521561751549598
11.896,2.3648392771719955
11.9,2.3645140694279689
11.904,2.3502049286908004
11.908,2.3459772280184552
11.912,2.3495545132027473
11.916,2.3472780589945614
11.92,2.3407739041140303
11.924,2.3453268125304021
11.928,2.362237615219783
11.932,2.3645140694279689
11.936,2.3518309674109332
11.94,2.3443511892983224
11.944,2.3528065906430129
11.948,2.3576847068034112
11.952,2.3515057596669067
11.956,2.3456520202744287
11.96,2.3479284744826145
11.964,2.350530136434827
11.968,2.344676397042349
11.972,2.3420747350901365
11.976,2.3550830448511988
11.98,2.3628880307078362
11.984,2.3463024357624818
11.988,2.3284160098410212
11.992,2.3310176717932336
11.996,2.344676397042349
12,2.3492293054587208
12.004,2.3355705802096054
12.008,2.3313428795372602
12.012,2.3437007738102693
12.016,2.344676397042349
12.02,2.330692464049207
12.024,2.318984985264251
12.028,2.327765594352968
12.032,2.335895787953632
12.036,2.324838724656729
12.04,2.3222370627045166
12.044,2.3313428795372602
12.048,2.3375218266737647
12.052,2.3215866472164635
12.056,2.3111799994076136
12.06,2.3173589465441182
12.064,2.3310176717932336
12.068,2.3404486963700037
12.072,2.3463024357624818
12.076,2.3612619919877034
12.08,2.3619124074757565
12.084,2.3378470344177913
12.088,2.3092287529434543
12.092,2.3056514677591622
12.096,2.3267899711208884
12.1,2.3440259815542959
12.104,2.3437007738102693
12.108,2.3437007738102693
12.112,2.356383875827305
12.116,2.3632132384518627
12.12,2.3580099145474378
12.124,2.3602863687556237
12.128,2.3788232101651374
12.132,2.3905306889500935
12.136,2.3889046502299607
12.14,2.3902054812060669
12.144,2.4035389987111557
12.148,2.4071162838954479
12.152,2.3960592205985449
12.156,2.3898802734620403
12.16,2.3921567276702262
12.164,2.3892298579739872
12.168,2.3749207172368187
12.172,2.3632132384518627
12.176,2.3716686397965532
12.18,2.3817500798613764
12.184,2.3641888616839424
12.188,2.3332941260014195
12.192,2.3280908020969946
12.196,2.34174952734611
12.2,2.3508553441788536
12.204,2.3375218266737647
12.208,2.3352453724655788
12.212,2.34174952734611
12.216,2.3352453724655788
12.22,2.3232126859365962
12.224,2.3271151788649149
12.228,2.3420747350901365
12.232,2.3498797209467739
12.236,2.3420747350901365
12.24,2.3404486963700037
12.244,2.3528065906430129
12.248,2.3684165623562876
12.252,2.393782766390359
12.256,2.4571982764755376
12.26,2.5687445326766465
12.264,2.7193157181609422
12.268,2.8415938299149275
12.272,2.9072857942082919
12.276,2.8627323332766537
12.28,2.6939495141268708
12.284,2.462726808123989
12.288,2.2672769539640285
12.292,2.1859750179573894
12.296,2.1954060425341595
12.3,2.2292276479129214
12.304,2.2597971758514177
12.308,2.301423767086817
12.312,2.338822657649871
12.316,2.3414243196020834
12.32,2.3167085310560651
12.324,2.3069522987352684
12.328,2.3228874781925697
12.332,2.3339445414894726
12.336,2.3254891401447821
12.34,2.3183345697761979
12.344,2.3167085310560651
12.348,2.3183345697761979
12.352,2.3134564536157995
12.356,2.3137816613598261
12.36,2.3271151788649149
12.364,2.3427251505781896
12.368,2.3456520202744287
12.372,2.3420747350901365
12.376,2.3498797209467739
12.38,2.3599611610115971
12.384,2.3502049286908004
12.388,2.3290664253290743
12.392,2.3336193337454461
12.396,2.350530136434827
12.4,2.3560586680832785
12.404,2.3511805519228801
12.408,2.356383875827305
12.412,2.3758963404688984
12.416,2.3885794424859341
12.42,2.3856525727896951
12.424,2.3853273650456686
12.428,2.3921567276702262
12.432,2.3918315199261997
12.436,2.3810996643733233
12.44,2.3837013263255358
12.444,2.3993112980388105
12.448,2.41069356907974
12.452,2.4067910761514213
12.456,2.4155716852401383
12.46,2.4396370582981035
12.464,2.4607755616598297
12.468,2.4584991074516438
12.472,2.448092459642794
12.476,2.4536209912912454
12.48,2.4741090791649185
12.484,2.4780115720932372
12.488,2.4770359488611575
12.492,2.4932963360624854
12.496,2.5189877478405833
12.5,2.5264675259531941
12.504,2.514109631680185
12.508,2.5121583852160256
12.512,2.5202885788166896
12.516,2.5131340084481053
12.52,2.488418219902087
12.524,2.4780115720932372
12.528,2.4799628185573965
12.532,2.468580547516467
12.536,2.4419135125062894
12.54,2.4214254246326163
12.544,2.41069356907974
12.548,2.3960592205985449
12.552,2.3628880307078362
12.556,2.3339445414894726
12.56,2.3232126859365962
12.564,2.3196354007523041
12.568,2.3147572845919058
12.572,2.3066270909912419
12.576,2.3098791684315074
12.58,2.3150824923359323
12.584,2.2988221051346045
12.588,2.2767079785407986
12.592,2.2780088095169049
12.596,2.2929683657421265
12.6,2.287439834093675
12.604,2.2682525771961082
12.608,2.2695534081722144
12.612,2.2851633798854891
12.616,2.287439834093675
12.62,2.266951746220002
12.624,2.255894682923099
12.628,2.2679273694520816
12.632,2.2763827707967721
12.636,2.2656509152438957
12.64,2.2685777849401347
12.644,2.2796348482370377
12.648,2.2861390031175688
12.652,2.2763827707967721
12.656,2.2646752920118161
12.66,2.2718298623804003
12.664,2.2851633798854891
12.668,2.2806104714691173
12.672,2.2776836017728783
12.676,2.2851633798854891
12.68,2.2971960664144717
12.684,2.2890658728138078
12.688,2.2754071475646924
12.692,2.2747567320766393
12.696,2.2835373411653563
12.7,2.2770331862848252
12.704,2.2623988378036302
12.708,2.2663013307319488
12.712,2.2780088095169049
12.716,2.2754071475646924
12.72,2.2565450984111521
12.724,2.2497157357865945
12.728,2.2604475913394708
12.732,2.2636996687797364
12.736,2.2526426054828335
12.74,2.2519921899947803
12.744,2.2666265384759754
12.748,2.2763827707967721
12.752,2.2656509152438957
12.756,2.2575207216432318
12.76,2.2689029926841613
12.764,2.2822365101892501
12.768,2.2705290314042941
12.772,2.2571955138992053
12.776,2.2601223835954443
12.78,2.2672769539640285
12.784,2.261748422315577
12.788,2.2490653202985413
12.792,2.2458132428582758
12.796,2.2503661512746476
12.8,2.2467888660903554
12.804,2.2334553485852666
12.808,2.2282520246808417
12.812,2.2370326337695587
12.816,2.2409351266978774
12.82,2.2350813873053994
12.824,2.2389838802337181
12.828,2.2510165667627007
12.832,2.2575207216432318
12.836,2.2516669822507538
12.84,2.250040943530621
12.844,2.2562198906671256
12.848,2.25296781322686
12.852,2.2373578415135853
12.856,2.2292276479129214
12.86,2.2406099189538509
12.864,2.2523173977388069
12.868,2.2432115809060633
12.872,2.2341057640733197
12.876,2.2480896970664617
12.88,2.2702038236602675
12.884,2.2809356792131439
12.888,2.2877650418377016
12.892,2.3004481438547373
12.896,2.313131245871773
12.9,2.3059766755031887
12.904,2.2851633798854891
12.908,2.2828869256773032
12.912,2.2945944044622593
12.916,2.3017489748308435
12.92,2.2919927425100468
12.924,2.2822365101892501
12.928,2.2926431579980999
12.932,2.2978464819025248
12.936,2.287439834093675
12.94,2.275732355308719
12.944,2.2747567320766393
12.948,2.2711794468923472
12.952,2.2568703061551787
12.956,2.2523173977388069
12.96,2.2614232145715505
12.964,2.2656509152438957
12.968,2.2575207216432318
12.972,2.2516669822507538
12.976,2.269878615916241
12.98,2.2949196122062858
12.984,2.2958952354383655
12.988,2.2799600559810642
12.992,2.2760575630527455
12.996,2.2897162883018609
13,2.2952448199503124
13.004,2.2910171192779671
13.008,2.3056514677591622
13.012,2.3573594990593847
13.016,2.4269539562810678
13.02,2.517036501376424
13.024,2.6513472996593919
13.028,2.7817556050140411
13.032,2.8549273474200163
13.036,2.7902110063587315
13.04,2.6289079653215595
13.044,2.4519949525711127
13.048,2.3150824923359323
13.052,2.2409351266978774
13.056,2.2266259859607089
13.06,2.2532930209708866
13.064,2.2919927425100468
13.068,2.3144320768478792
13.072,2.3176841542881448
13.076,2.3303672563051805
13.08,2.3469528512505349
13.084,2.3440259815542959
13.088,2.3336193337454461
13.092,2.34174952734611
13.096,2.3612619919877034
13.1,2.3638636539399158
13.104,2.347603266738588
13.108,2.3456520202744287
13.112,2.3570342913153581
13.116,2.362237615219783
13.12,2.3602863687556237
13.124,2.3632132384518627
13.128,2.376221548212925
13.132,2.3876038192538545
13.136,2.3872786115098279
13.14,2.3915063121821731
13.144,2.4123196077998728
13.148,2.4184985549363773
13.152,2.4064658684073947
13.156,2.3918315199261997
13.16,2.3993112980388105
13.164,2.4155716852401383
13.168,2.4152464774961118
13.172,2.4162221007281914
13.176,2.4350841498817317
13.18,2.4549218222673517
13.184,2.4565478609874845
13.188,2.4474420441547409
13.192,2.4464664209226612
13.196,2.4506941215950064
13.2,2.4467916286666878
13.204,2.4412630970182363
13.208,2.445165589946555
13.212,2.4630520158680156
13.216,2.4744342869089451
13.22,2.4776863643492106
13.224,2.4841905192297418
13.228,2.5053290225914679
13.232,2.5251666949770879
13.236,2.5329716808337253
13.24,2.5466304060828406
13.244,2.5710209868848324
13.248,2.5785007649974432
13.252,2.5645168320043012
13.256,2.554435391939478
13.26,2.5674437017005403
13.264,2.5739478565810714
13.268,2.5635412087722216
13.272,2.5606143390759826
13.276,2.569069740420673
13.28,2.5765495185332838
13.284,2.5664680784684606
13.288,2.5459799905947875
13.292,2.5303700188815128
13.296,2.5085811000317335
13.3,2.473783871420892
13.304,2.4409378892742097
13.308,2.4305312414653599
13.312,2.4308564492093865
13.316,2.4168725162162445
13.32,2.3954088051104918
13.324,2.3827257030934561
13.328,2.3830509108374827
13.332,2.373294678516686
13.336,2.3511805519228801
13.34,2.34174952734611
13.344,2.3469528512505349
13.348,2.3547578371071722
13.352,2.3430503583222162
13.356,2.3326437105133664
13.36,2.3274403866089415
13.364,2.3284160098410212
13.368,2.3180093620321713
13.372,2.310204376175534
13.376,2.3121556226396933
13.38,2.313131245871773
13.384,2.3027245980629232
13.388,2.2819113024452236
13.392,2.2793096404930111
13.396,2.290366703789914
13.4,2.290366703789914
13.404,2.2718298623804003
13.408,2.2695534081722144
13.412,2.278659225004958
13.416,2.278659225004958
13.42,2.2666265384759754
13.424,2.2636996687797364
13.428,2.2666265384759754
13.432,2.2536182287149131
13.436,2.2308536866330542
13.44,2.2240243240084965
13.444,2.2331301408412401
13.448,2.2373578415135853
13.452,2.2285772324248683
13.456,2.2279268169368152
13.46,2.2461384506023023
13.464,2.2581711371312849
13.468,2.2432115809060633
13.472,2.2263007782166824
13.476,2.2191462078480981
13.48,2.2158941304078326
13.484,2.1976824967423454
13.488,2.1794708630768582
13.492,2.1853246024693362
13.496,2.1980077044863719
13.5,2.1924791728379205
13.504,2.1765439933806192
13.508,2.1768692011246458
13.512,2.1970320812542923
13.516,2.1996337432065047
13.52,2.1846741869812831
13.524,2.1791456553328317
13.528,2.1872758489334956
13.532,2.1895523031416815
13.536,2.1703650462441146
13.54,2.1544298667868134
13.544,2.1573567364830524
13.548,2.1619096448994242
13.552,2.1472752964182291
13.556,2.1316653247049544
13.56,2.1362182331213262
13.564,2.146624880930176
13.568,2.1394703105615918
13.572,2.1254863775684498
13.576,2.1287384550087154
13.58,2.140771141537698
13.584,2.1384946873295121
13.588,2.1277628317766357
13.592,2.13491740214522
13.596,2.1472752964182291
13.6,2.1397955183056183
13.604,2.118006599455839
13.608,2.1095511981111486
13.612,2.1222343001281843
13.616,2.1345921944011934
13.62,2.1329661556810606
13.624,2.1329661556810606
13.628,2.1430475957458839
13.632,2.1446736344660167
13.636,2.1297140782407951
13.64,2.1222343001281843
13.644,2.1381694795854855
13.648,2.1615844371553976
13.652,2.169389423012035
13.656,2.1775196166126989
13.66,2.1954060425341595
13.664,2.206788313575089
13.668,2.1976824967423454
13.672,2.1915035496058408
13.676,2.1960564580222126
13.68,2.2006093664385844
13.684,2.1937800038140267
13.688,2.1833733560051769
13.692,2.1814221095410176
13.696,2.1908531341177877
13.7,2.186950641189469
13.704,2.1710154617321678
13.708,2.1690642152680084
13.712,2.1736171236843802
13.716,2.158332359715132
13.72,2.1355678176332731
13.724,2.13491740214522
13.728,2.1602836061792914
13.732,2.1804464863089379
13.736,2.1742675391724333
13.74,2.1667877610598225
13.744,2.1791456553328317
13.748,2.1846741869812831
13.752,2.1775196166126989
13.756,2.1755683701485395
13.76,2.189877510885708
13.764,2.2019101974146906
13.768,2.1905279263737611
13.772,2.1713406694761943
13.776,2.1801212785649113
13.78,2.2171949613839388
13.784,2.2737811088445596
13.788,2.3560586680832785
13.792,2.47963761081337
13.796,2.6344364969700109
13.8,2.7489096228673588
13.804,2.7833816437341738
13.808,2.6968763838231098
13.812,2.5284187724173535
13.816,2.335895787953632
13.82,2.1941052115580533
13.824,2.1443484267219901
13.828,2.1567063209949993
13.832,2.1924791728379205
13.836,2.2210974543122575
13.84,2.2516669822507538
13.844,2.2890658728138078
13.848,2.3095539606874809
13.852,2.301423767086817
13.856,2.2945944044622593
13.86,2.310204376175534
13.864,2.3258143478888087
13.868,2.3264647633768618
13.872,2.3225622704485431
13.876,2.3368714111857116
13.88,2.3589855377795175
13.884,2.3612619919877034
13.888,2.3602863687556237
13.892,2.370367808820447
13.896,2.3921567276702262
13.9,2.3957340128545184
13.904,2.3866281960217748
13.908,2.3889046502299607
13.912,2.4064658684073947
13.916,2.4272791640250944
13.92,2.4302060337213334
13.924,2.4347589421377052
13.928,2.4575234842195641
13.932,2.4663040933082812
13.936,2.4617511848919094
13.94,2.4633772236120421
13.944,2.4832148959976621
13.948,2.5017517374071758
13.952,2.4936215438065119
13.956,2.4835401037416887
13.96,2.5017517374071758
13.964,2.5297196033934597
13.968,2.5414270821784157
13.972,2.5466304060828406
13.976,2.5680941171885934
13.98,2.6028913457994349
13.984,2.6211029794649221
13.988,2.6243550569051877
13.992,2.6295583808096126
13.996,2.646143975754967
14,2.6568758313078433
14.004,2.6643556094204541
14.008,2.6890713979664724
14.012,2.723868626577314
14.016,2.7440315067069605
14.02,2.7482592073793057
14.024,2.7544381545158103
14.028,2.7674464642768726
14.032,2.7677716720208991
14.036,2.7528121157956775
14.04,2.7476087918912526
14.044,2.7703733339731116
14.048,2.7908614218467847
14.052,2.7863085134304129
14.056,2.770048126229085
14.06,2.7593162706762087
14.064,2.7560641932359431
14.068,2.741429844754748
14.072,2.7193157181609422
14.076,2.706957823887933
14.08,2.704030954191694
14.084,2.6890713979664724
14.088,2.6633799861883745
14.092,2.6568758313078433
14.096,2.6633799861883745
14.1,2.6575262467958964
14.104,2.6415910673385952
14.108,2.6334608737379313
14.112,2.6467943912430201
14.116,2.6510220919153653
14.12,2.6438675215467811
14.124,2.6406154441065155
14.128,2.6497212609392591
14.132,2.6539489616116043
14.136,2.6562254158197902
14.14,2.6650060249085072
14.144,2.683542866318021
14.148,2.7004536690074019
14.152,2.6932990986388177
14.156,2.6780143346695695
14.16,2.6819168275978882
14.164,2.695250345102977
14.168,2.6890713979664724
14.172,2.6783395424135961
14.176,2.6926486831507646
14.18,2.7141123942565173
14.184,2.7124863555363845
14.188,2.7059822006558534
14.192,2.7147628097445704
14.196,2.7319988201779779
14.2,2.7349256898742169
14.204,2.7248442498093937
14.208,2.7303727814578451
14.212,2.7482592073793057
14.216,2.7557389854919165
14.22,2.7528121157956775
14.224,2.7557389854919165
14.228,2.7765522811096162
14.232,2.7863085134304129
14.236,2.7703733339731116
14.24,2.7619179326284211
14.244,2.7765522811096162
14.248,2.7921622528228909
14.252,2.7801295662939083
14.256,2.764194386836607
14.26,2.767121256532846
14.264,2.781105189525988
14.268,2.7885849676385988
14.272,2.7924874605669174
14.276,2.8123251329525374
14.28,2.8324880130821839
14.284,2.8253334427135997
14.288,2.8051705625839531
14.292,2.795739538007183
14.296,2.7973655767273158
14.3,2.7889101753826253
14.304,2.7680968797649257
14.308,2.7661456333007663
14.312,2.7915118373348378
14.316,2.8123251329525374
14.32,2.8129755484405905
14.324,2.8087478477682453
14.328,2.8064713935600594
14.332,2.7973655767273158
14.336,2.7794791508058552
14.34,2.7733002036693506
14.344,2.7918370450788643
14.348,2.8035445238638204
14.352,2.7967151612392627
14.356,2.7889101753826253
14.36,2.801593277399661
14.364,2.8172032491129357
14.368,2.8142763794166967
14.372,2.8032193161197938
14.376,2.8038697316078469
14.38,2.8113495097204577
14.384,2.7989916154474486
14.388,2.7830564359901473
14.392,2.7911866295908112
14.396,2.8188292878330685
14.4,2.8380165447306354
14.404,2.8409434144268744
14.408,2.8565533861401491
14.412,2.8858220831025392
14.416,2.9004564315837342
14.42,2.8952531076793093
14.424,2.8939522767032031
14.428,2.9004564315837342
14.432,2.8929766534711234
14.436,2.8653339952288661
14.44,2.8464719460753258
14.444,2.8546021396759897
14.448,2.8672852416930255
14.452,2.8516752699797507
14.456,2.8279351046658121
14.46,2.821430949785281
14.464,2.8220813652733341
14.468,2.8071218090481125
14.472,2.7937882915430237
14.476,2.801593277399661
14.48,2.8149267949047498
14.484,2.8119999252085108
14.488,2.7973655767273158
14.492,2.7973655767273158
14.496,2.7999672386795282
14.5,2.7944387070310768
14.504,2.7850076824543066
14.508,2.786958928918466
14.512,2.798666407703422
14.516,2.7934630837989971
14.52,2.7817556050140411
14.524,2.7908614218467847
14.528,2.8220813652733341
14.532,2.8552525551640429
14.536,2.8920010302390438
14.54,2.9615954874607269
14.544,3.0796458985423669
14.548,3.2146071123133879
14.552,3.2965594638080802
14.556,3.2711932597740088
14.56,3.1235489439859521
14.564,2.9004564315837342
14.568,2.6708597643009853
14.572,2.519963371072663
14.576,2.4721578327007592
14.58,2.4835401037416887
14.584,2.4998004909430165
14.588,2.5154104626562912
14.592,2.5280935646733269
14.596,2.5352481350419112
14.6,2.5209389943047427
14.604,2.4965484135027509
14.608,2.4880930121580604
14.612,2.5007761141750962
14.616,2.5050038148474414
14.62,2.491345089598326
14.624,2.4770359488611575
14.628,2.4799628185573965
14.632,2.4841905192297418
14.636,2.4822392727655824
14.64,2.4874425966700073
14.644,2.5020769451512024
14.648,2.5105323464958929
14.652,2.5043533993593883
14.656,2.4965484135027509
14.66,2.4975240367348306
14.664,2.5011013219191227
14.668,2.4880930121580604
14.672,2.4721578327007592
14.676,2.476710741117131
14.68,2.4858165579498746
14.684,2.4812636495335028
14.688,2.4815888572775293
14.692,2.4903694663662463
14.696,2.5072802690556273
14.7,2.5072802690556273
14.704,2.4932963360624854
14.708,2.4952475825266447
14.712,2.5046786071034148
14.716,2.5037029838713352
14.72,2.4923207128304057
14.724,2.4926459205744322
14.728,2.5089063077757601
14.732,2.519963371072663
14.736,2.5183373323525302
14.74,2.5189877478405833
14.744,2.5381750047381502
14.748,2.5583378848677967
14.752,2.5703705713967793
14.756,2.5811024269496556
14.76,2.6009400993352756
14.764,2.6185013175127096
14.768,2.6080946697038598
14.772,2.6032165535434615
14.776,2.620452563976869
14.78,2.6412658595945686
14.784,2.6383389898983296
14.788,2.6198021484888159
14.792,2.6178509020246565
14.796,2.6285827575775329
14.8,2.6246802646492142
14.804,2.6025661380554084
14.808,2.5882569973182399
14.812,2.5824032579257619
14.816,2.5700453636527527
14.82,2.5417522899224423
14.824,2.5238658640009817
14.828,2.5206137865607161
14.832,2.5118331774719991
14.836,2.4893938431341667
14.84,2.4698813784925733
14.844,2.4682553397724405
14.848,2.4643528468441218
14.852,2.4445151744585019
14.856,2.4233766710967757
14.86,2.4292304104892537
14.864,2.442238720250316
14.868,2.4396370582981035
14.872,2.4263035407930147
14.876,2.4279295795131475
14.88,2.4409378892742097
14.884,2.445165589946555
14.888,2.4409378892742097
14.892,2.4412630970182363
14.896,2.4438647589704487
14.9,2.4370353963458911
14.904,2.4272791640250944
14.908,2.4406126815301832
14.912,2.4601251461717766
14.916,2.4666293010523077
14.92,2.4542714067792986
14.924,2.445165589946555
14.928,2.4565478609874845
14.932,2.4637024313560687
14.936,2.4558974454994313
14.94,2.4497184983629268
14.944,2.4575234842195641
14.948,2.4718326249567326
14.952,2.4711822094686795
14.956,2.4679301320284139
14.96,2.473783871420892
14.964,2.4858165579498746
14.968,2.4770359488611575
14.972,2.4614259771478828
14.976,2.4581738997076172
14.98,2.4659788855642546
14.984,2.462726808123989
14.988,2.4503689138509799
14.992,2.4584991074516438
14.996,2.4799628185573965
15,2.4867921811819542
15.004,2.4806132340454496
15.008,2.4841905192297418
15.012,2.4981744522228837
15.016,2.4981744522228837
15.02,2.4851661424618214
15.024,2.4858165579498746
15.028,2.5011013219191227
15.032,2.5121583852160256
15.036,2.4991500754549634
15.04,2.4874425966700073
15.044,2.4864669734379277
15.048,2.4845157269737683
15.052,2.4802880263014231
15.056,2.4841905192297418
15.06,2.5017517374071758
15.064,2.5235406562569551
15.068,2.5238658640009817
15.072,2.5157356704003178
15.076,2.5193129555846099
15.08,2.5277683569293004
15.084,2.5167112936323974
15.088,2.4936215438065119
15.092,2.4835401037416887
15.096,2.4926459205744322
15.1,2.4981744522228837
15.104,2.4916702973423526
15.108,2.4932963360624854
15.112,2.511182761983946
15.116,2.5235406562569551
15.12,2.5150852549122646
15.124,2.5121583852160256
15.128,2.5248414872330613
15.132,2.5297196033934597
15.136,2.5124835929600522
15.14,2.5017517374071758
15.144,2.5202885788166896
15.148,2.5476060293149203
15.152,2.5593135080998763
15.156,2.5758991030452307
15.16,2.6064686309837271
15.164,2.6285827575775329
15.168,2.623379433673108
15.172,2.6129727858642582
15.176,2.6132979936082847
15.18,2.6165500710485503
15.184,2.6067938387277536
15.188,2.5869561663421337
15.192,2.5853301276220009
15.196,2.6032165535434615
15.2,2.6123223703762051
15.204,2.5996392683591694
15.208,2.5872813740861602
15.212,2.5804520114616025
15.216,2.5583378848677967
15.22,2.5313456421135925
15.224,2.5238658640009817
15.228,2.5414270821784157
15.232,2.5537849764514249
15.236,2.5502076912671328
15.24,2.5433783286425751
15.244,2.551508522243239
15.248,2.5615899623080622
15.252,2.5537849764514249
15.256,2.5430531208985485
15.26,2.5635412087722216
15.264,2.5872813740861602
15.268,2.5866309585981071
15.272,2.5768747262773104
15.276,2.5905334515264258
15.28,2.6373633666662499
15.284,2.6932990986388177
15.288,2.7661456333007663
15.292,2.8955783154233359
15.296,3.0510276170680299
15.3,3.1544436796684749
15.304,3.1668015739414841
15.308,3.0529788635321893
15.312,2.8546021396759897
15.316,2.649070845451206
15.32,2.5095567232638132
15.324,2.4611007694038562
15.328,2.4802880263014231
15.332,2.5150852549122646
15.336,2.5394758357142564
15.34,2.5648420397483278
15.344,2.5954115676868241
15.348,2.6129727858642582
15.352,2.6090702929359395
15.356,2.5980132296390366
15.36,2.6015905148233287
15.364,2.6110215394000988
15.368,2.6097207084239926
15.372,2.6106963316560723
15.376,2.6201273562328424
15.38,2.6315096272737719
15.384,2.6266315111133736
15.388,2.6211029794649221
15.392,2.6396398208744358
15.396,2.6685833100927994
15.4,2.6689085178368259
15.404,2.6510220919153653
15.408,2.6510220919153653
15.412,2.6685833100927994
15.416,2.6802907888777554
15.42,2.6721605952770915
15.424,2.6702093488129321
15.428,2.6877705669903662
15.432,2.6994780457753222
15.436,2.6913478521746583
15.44,2.6845184895501006
15.444,2.6955755528470036
15.448,2.7134619787684642
15.452,2.7183400949288625
15.456,2.7202913413930219
15.46,2.7329744434100576
15.464,2.7378525595704559
15.468,2.7251694575534202
15.472,2.7170392639527563
15.476,2.7365517285943497
15.48,2.7674464642768726
15.484,2.7853328901983332
15.488,2.7934630837989971
15.492,2.8087478477682453
15.496,2.838992167962715
15.5,2.8513500622357242
15.504,2.8464719460753258
15.508,2.8555777629080694
15.512,2.8799683437100612
15.516,2.8972043541434687
15.52,2.9001312238397077
15.524,2.9092370406724513
15.528,2.9212697272014339
15.532,2.9232209736655932
15.536,2.9131395336007699
15.54,2.9131395336007699
15.544,2.924847012385726
15.548,2.9368796989147086
15.552,2.9209445194574073
15.556,2.9098874561605044
15.56,2.9167168187850621
15.564,2.9267982588498853
15.568,2.9085866251843981
15.572,2.8773666817578487
15.576,2.8604558790684678
15.58,2.855902970652096
15.584,2.8347644672903698
15.588,2.8071218090481125
15.592,2.7934630837989971
15.596,2.7947639147751033
15.6,2.786958928918466
15.604,2.7654952178127132
15.608,2.7589910629321821
15.612,2.7716741649492178
15.616,2.7723245804372709
15.62,2.7550885700038634
15.624,2.7508608693315182
15.628,2.7625683481164742
15.632,2.7680968797649257
15.636,2.7576902319560759
15.64,2.7531373235397041
15.644,2.761267517140368
15.648,2.7680968797649257
15.652,2.7544381545158103
15.656,2.7417550524987746
15.66,2.7541129467717838
15.664,2.7703733339731116
15.668,2.772974995925324
15.672,2.772974995925324
15.676,2.7850076824543066
15.68,2.7983411999593955
15.684,2.7846824747102801
15.688,2.7518364925635979
15.692,2.7391533905465622
15.696,2.7521617003076244
15.7,2.7560641932359431
15.704,2.749560038355412
15.708,2.7469583764031995
15.712,2.7576902319560759
15.716,2.764194386836607
15.72,2.7567146087239962
15.724,2.7498852460994385
15.728,2.7544381545158103
15.732,2.7560641932359431
15.736,2.738502975058509
15.74,2.7310231969458982
15.744,2.7375273518264294
15.748,2.7463079609151464
15.752,2.7359013131062966
15.756,2.7206165491370484
15.76,2.7186653026728891
15.764,2.7176896794408094
15.768,2.7079334471200127
15.772,2.7082586548640393
15.776,2.7293971582257655
15.78,2.7443567144509871
15.784,2.7378525595704559
15.788,2.7144376020005438
15.792,2.7128115632804111
15.796,2.7261450807854999
15.8,2.7228930033452343
15.804,2.706957823887933
15.808,2.704030954191694
15.812,2.7124863555363845
15.816,2.715088017488597
15.82,2.7014292922394816
15.824,2.6968763838231098
15.828,2.7030553309596144
15.832,2.7024049154715613
15.836,2.6841932818060741
15.84,2.6718353875330649
15.844,2.6770387114374898
15.848,2.6845184895501006
15.852,2.6653312326525338
15.856,2.646143975754967
15.86,2.6480952222191263
15.864,2.6559002080757637
15.868,2.6487456377071794
15.872,2.6386641976423562
15.876,2.6471195989870466
15.88,2.6572010390518699
15.884,2.651997715147445
15.888,2.6406154441065155
15.892,2.6438675215467811
15.896,2.660778324236162
15.9,2.6698841410689056
15.904,2.6630547784443479
15.908,2.6659816481405869
15.912,2.683542866318021
15.916,2.6962259683350567
15.92,2.6861445282702334
15.924,2.6702093488129321
15.928,2.6718353875330649
15.932,2.6692337255808525
15.936,2.649070845451206
15.94,2.6367129511781968
15.944,2.649070845451206
15.948,2.6581766622839496
15.952,2.6435423138027545
15.956,2.6253306801372673
15.96,2.6181761097686831
15.964,2.6093955006799661
15.968,2.5879317895742133
15.972,2.5651672474923544
15.976,2.563216001028195
15.98,2.5713461946288589
15.984,2.5609395468200091
15.988,2.548581652547
15.992,2.5570370538916904
15.996,2.5752486875571776
16,2.5775251417653635
16.004,2.5648420397483278
16.008,2.5628907932841685
16.012,2.5710209868848324
16.016,2.5674437017005403
16.02,2.5463051983388141
16.024,2.5495572757790796
16.028,2.5983384373830631
16.032,2.6711849720450118
16.036,2.7550885700038634
16.04,2.8754154352936894
16.044,3.0100514413206838
16.048,3.1076137645286508
16.052,3.0854996379348449
16.056,2.9287495053140447
16.06,2.718014887184836
16.064,2.5365489660180174
16.068,2.4149212697520852
16.072,2.3680913546122611
16.076,2.3902054812060669
16.08,2.4376858118339442
16.084,2.465653677820228
16.088,2.4695561707485467
16.092,2.4728082481888123
16.096,2.4708570017246529
16.1,2.462726808123989
16.104,2.4532957835472189
16.108,2.4591495229396969
16.112,2.4698813784925733
16.116,2.4692309630045202
16.12,2.4607755616598297
16.124,2.4646780545881484
16.128,2.4773611566051841
16.132,2.4763855333731044
16.136,2.4549218222673517
16.14,2.4402874737861566
16.144,2.4458160054346081
16.148,2.4536209912912454
16.152,2.4497184983629268
16.156,2.4487428751308471
16.16,2.456873068731511
16.164,2.4503689138509799
16.168,2.4266287485370412
16.172,2.4207750091445632
16.176,2.4380110195779707
16.18,2.4620763926359359
16.184,2.4630520158680156
16.188,2.4490680828748737
16.192,2.4503689138509799
16.196,2.456873068731511
16.2,2.4549218222673517
16.204,2.4542714067792986
16.208,2.4682553397724405
16.212,2.494271959294565
16.216,2.508255892287707
16.22,2.5092315155197866
16.224,2.5128088007040787
16.228,2.525817110465141
16.232,2.5342725118098315
16.236,2.5238658640009817
16.24,2.5215894097927958
16.244,2.5339473040658049
16.248,2.542727913154522
16.252,2.5385002124821767
16.256,2.5385002124821767
16.26,2.5606143390759826
16.264,2.5856553353660274
16.268,2.5824032579257619
16.272,2.5775251417653635
16.276,2.5905334515264258
16.28,2.6080946697038598
16.284,2.6090702929359395
16.288,2.600614891591249
16.292,2.6009400993352756
16.296,2.6106963316560723
16.3,2.6028913457994349
16.304,2.5729722333489917
16.308,2.5502076912671328
16.312,2.542727913154522
16.316,2.5303700188815128
16.32,2.5059794380795211
16.324,2.4858165579498746
16.328,2.4754099101410247
16.332,2.4542714067792986
16.336,2.4149212697520852
16.34,2.3898802734620403
16.344,2.3957340128545184
16.348,2.4054902451753151
16.352,2.3924819354142528
16.356,2.3739450940047391
16.36,2.3680913546122611
16.364,2.3677661468682345
16.368,2.3547578371071722
16.372,2.3437007738102693
16.376,2.3531317983870395
16.38,2.3729694707726594
16.384,2.3742703017487656
16.388,2.3557334603392519
16.392,2.3443511892983224
16.396,2.3469528512505349
16.4,2.3375218266737647
16.404,2.3163833233120386
16.408,2.3007733515987638
16.412,2.2991473128786311
16.416,2.3063018832472153
16.42,2.3111799994076136
16.424,2.316058115568012
16.428,2.3228874781925697
16.432,2.3228874781925697
16.436,2.301423767086817
16.44,2.2822365101892501
16.444,2.2916675347660203
16.448,2.2939439889742061
16.452,2.2731306933565065
16.456,2.2565450984111521
16.46,2.2542686442029662
16.464,2.2656509152438957
16.468,2.27280548561248
16.472,2.2750819398206659
16.476,2.2939439889742061
16.48,2.3076027142233215
16.484,2.2919927425100468
16.488,2.2676021617080551
16.492,2.2633744610357098
16.496,2.2715046546363737
16.5,2.2672769539640285
16.504,2.2594719681073911
16.508,2.2682525771961082
16.512,2.2819113024452236
16.516,2.2780088095169049
16.52,2.261748422315577
16.524,2.2565450984111521
16.528,2.2620736300596036
16.532,2.2575207216432318
16.536,2.2497157357865945
16.54,2.2549190596910194
16.544,2.2776836017728783
16.548,2.2877650418377016
16.552,2.2734559011005331
16.556,2.2562198906671256
16.56,2.2568703061551787
16.564,2.2633744610357098
16.568,2.2532930209708866
16.572,2.2419107499299571
16.576,2.2506913590186741
16.58,2.2607727990834974
16.584,2.2545938519469928
16.588,2.2360570105374791
16.592,2.2393090879777446
16.596,2.2591467603633646
16.6,2.2650004997558426
16.604,2.2464636583463289
16.608,2.2315041021211073
16.612,2.2357318027934525
16.616,2.2467888660903554
16.62,2.2464636583463289
16.624,2.2519921899947803
16.628,2.2679273694520816
16.632,2.2822365101892501
16.636,2.2783340172609314
16.64,2.2783340172609314
16.644,2.3017489748308435
16.648,2.3287412175850477
16.652,2.3293916330731008
16.656,2.3206110239843838
16.66,2.3245135169127025
16.664,2.3394730731379241
16.668,2.3355705802096054
16.672,2.3215866472164635
16.676,2.3251639324007556
16.68,2.3401234886259772
16.684,2.3371966189297382
16.688,2.3232126859365962
16.692,2.3232126859365962
16.696,2.3206110239843838
16.7,2.3053262600151356
16.704,2.2770331862848252
16.708,2.266951746220002
16.712,2.2783340172609314
16.716,2.2854885876295157
16.72,2.275732355308719
16.724,2.2776836017728783
16.728,2.2997977283666842
16.732,2.3199606084963307
16.736,2.3173589465441182
16.74,2.3144320768478792
16.744,2.3134564536157995
16.748,2.3137816613598261
16.752,2.3040254290390294
16.756,2.3092287529434543
16.76,2.3251639324007556
16.764,2.3492293054587208
16.768,2.3784980024211109
16.772,2.4269539562810678
16.776,2.5209389943047427
16.78,2.6591522855160292
16.784,2.7931378760549705
16.788,2.8916758224950172
16.792,2.9121639103686903
16.796,2.8084226400242187
16.8,2.6061434232397005
16.804,2.4116691923118196
16.808,2.3092287529434543
16.812,2.2997977283666842
16.816,2.3228874781925697
16.82,2.3349201647215523
16.824,2.3414243196020834
16.828,2.3554082525952253
16.832,2.3635384461958893
16.836,2.353457006131066
16.84,2.3495545132027473
16.844,2.3619124074757565
16.848,2.3674409391242079
16.852,2.3573594990593847
16.856,2.3443511892983224
16.86,2.344676397042349
16.864,2.3508553441788536
16.868,2.3518309674109332
16.872,2.3544326293631457
16.876,2.373294678516686
16.88,2.3976852593186777
16.884,2.3980104670627043
16.888,2.3846769495576154
16.892,2.3863029882777482
16.896,2.41069356907974
16.9,2.4197993859124836
16.904,2.4152464774961118
16.908,2.413620438775979
16.912,2.4269539562810678
16.916,2.4360597731138114
16.92,2.4334581111615989
16.924,2.4386614350660238
16.928,2.4607755616598297
16.932,2.4728082481888123
16.936,2.4750847023969982
16.94,2.4835401037416887
16.944,2.5017517374071758
16.948,2.5118331774719991
16.952,2.4968736212467775
16.956,2.4815888572775293
16.96,2.4897190508781932
16.964,2.5102071387518663
16.968,2.5163860858883709
16.972,2.5209389943047427
16.976,2.5453295751067344
16.98,2.5736226488370448
16.984,2.5814276346936822
16.988,2.5837040889018681
16.992,2.6028913457994349
16.996,2.6220786026970018
17,2.6308592117857188
17.004,2.6282575498335063
17.008,2.6250054723932408
17.012,2.6341112892259844
17.016,2.6308592117857188
17.02,2.6152492400724441
17.024,2.6106963316560723
17.028,2.6246802646492142
17.032,2.6393146131304093
17.036,2.6363877434341703
17.04,2.6256558878812939
17.044,2.6224038104410283
17.048,2.623379433673108
17.052,2.6009400993352756
17.056,2.5745982720691245
17.06,2.5615899623080622
17.064,2.548581652547
17.068,2.522890240768902
17.072,2.5056542303354945
17.076,2.4994752831989899
17.08,2.4897190508781932
17.084,2.4731334559328388
17.088,2.4659788855642546
17.092,2.4789871953253169
17.096,2.5017517374071758
17.1,2.5037029838713352
17.104,2.4835401037416887
17.108,2.4695561707485467
17.112,2.4715074172127061
17.116,2.4676049242843874
17.12,2.4506941215950064
17.124,2.439311850554077
17.128,2.4490680828748737
17.132,2.4545966145233251
17.136,2.4461412131786346
17.14,2.4471168364107143
17.144,2.4611007694038562
17.148,2.4724830404447857
17.152,2.4637024313560687
17.156,2.4513445370830595
17.16,2.451019329339033
17.164,2.4519949525711127
17.168,2.4376858118339442
17.172,2.4276043717691209
17.176,2.4328076956735458
17.18,2.4432143434823956
17.184,2.434108526649652
17.188,2.4207750091445632
17.192,2.4243522943288554
17.196,2.4370353963458911
17.2,2.4383362273219973
17.204,2.4263035407930147
17.208,2.4331329034175724
17.212,2.4565478609874845
17.216,2.4653284700762015
17.22,2.4581738997076172
17.224,2.4591495229396969
17.228,2.4721578327007592
17.232,2.4763855333731044
17.236,2.4607755616598297
17.24,2.4471168364107143
17.244,2.4503689138509799
17.248,2.4669545087963343
17.252,2.4653284700762015
17.256,2.4584991074516438
17.26,2.4646780545881484
17.264,2.4711822094686795
17.268,2.4637024313560687
17.272,2.4549218222673517
17.276,2.4601251461717766
17.28,2.465653677820228
17.284,2.4549218222673517
17.288,2.4461412131786346
17.292,2.4490680828748737
17.296,2.4555722377554048
17.3,2.445165589946555
17.304,2.4168725162162445
17.308,2.4028885832231026
17.312,2.4090675303596072
17.316,2.41069356907974
17.32,2.3983356748067308
17.324,2.3947583896224387
17.328,2.4041894141992088
17.332,2.4087423226155806
17.336,2.3928071431582794
17.34,2.3895550657180138
17.344,2.3999617135268636
17.348,2.3986608825507574
17.352,2.3765467559569515
17.356,2.3716686397965532
17.36,2.3856525727896951
17.364,2.4035389987111557
17.368,2.4038642064551823
17.372,2.4061406606633682
17.376,2.4292304104892537
17.38,2.4584991074516438
17.384,2.45979993842775
17.388,2.4373606040899176
17.392,2.4188237626804039
17.396,2.4207750091445632
17.4,2.4220758401206695
17.404,2.4126448155438993
17.408,2.4132952310319524
17.412,2.4243522943288554
17.416,2.4211002168885898
17.42,2.3950835973664653
17.424,2.3719938475405797
17.428,2.365164484916022
17.432,2.3596359532675706
17.436,2.344676397042349
17.44,2.3371966189297382
17.444,2.3410991118580569
17.448,2.3511805519228801
17.452,2.3384974499058444
17.456,2.3209362317284103
17.46,2.3254891401447821
17.464,2.3378470344177913
17.468,2.3352453724655788
17.472,2.3284160098410212
17.476,2.3371966189297382
17.48,2.3492293054587208
17.484,2.3430503583222162
17.488,2.3342697492334992
17.492,2.3515057596669067
17.496,2.3973600515746512
17.5,2.4519949525711127
17.504,2.517036501376424
17.508,2.623379433673108
17.512,2.7378525595704559
17.516,2.8139511716726702
17.52,2.7794791508058552
17.524,2.638013782154303
17.528,2.453946199035272
17.532,2.3059766755031887
17.536,2.2194714155921247
17.54,2.1954060425341595
17.544,2.2210974543122575
17.548,2.2568703061551787
17.552,2.2741063165885862
17.556,2.2767079785407986
17.56,2.287439834093675
17.564,2.3023993903188966
17.568,2.2939439889742061
17.572,2.2812608869571704
17.576,2.2900414960458875
17.58,2.3095539606874809
17.584,2.3128060381277464
17.588,2.3004481438547373
17.592,2.2994725206226576
17.596,2.3157329078239854
17.6,2.3144320768478792
17.604,2.301423767086817
17.608,2.2991473128786311
17.612,2.3059766755031887
17.616,2.3063018832472153
17.62,2.2997977283666842
17.624,2.3089035451994278
17.628,2.3300420485611539
17.632,2.3407739041140303
17.636,2.3264647633768618
17.64,2.3245135169127025
17.644,2.3479284744826145
17.648,2.373294678516686
17.652,2.3697173933323938
17.656,2.3554082525952253
17.66,2.3547578371071722
17.664,2.3628880307078362
17.668,2.3599611610115971
17.672,2.3518309674109332
17.676,2.362237615219783
17.68,2.3846769495576154
17.684,2.3950835973664653
17.688,2.3934575586463325
17.692,2.4022381677350495
17.696,2.4237018788408022
17.7,2.4350841498817317
17.704,2.4233766710967757
17.708,2.419474178168457
17.712,2.4328076956735458
17.716,2.4435395512264222
17.72,2.4419135125062894
17.724,2.4441899667144753
17.728,2.4575234842195641
17.732,2.4721578327007592
17.736,2.4692309630045202
17.74,2.4757351178850513
17.744,2.4955727902706712
17.748,2.5160608781443443
17.752,2.511182761983946
17.756,2.5007761141750962
17.76,2.5020769451512024
17.764,2.5020769451512024
17.768,2.4822392727655824
17.772,2.456873068731511
17.776,2.4464664209226612
17.78,2.4419135125062894
17.784,2.4188237626804039
17.788,2.3840265340695623
17.792,2.3706930165644735
17.796,2.376221548212925
17.8,2.3726442630286328
17.804,2.3531317983870395
17.808,2.3443511892983224
17.812,2.3511805519228801
17.816,2.3567090835713316
17.82,2.3450016047863755
17.824,2.3407739041140303
17.828,2.3482536822266411
17.832,2.3541074216191191
17.836,2.3427251505781896
17.84,2.3323185027693398
17.844,2.3352453724655788
17.848,2.3349201647215523
17.852,2.3141068691038527
17.856,2.2955700276943389
17.86,2.3079279219673481
17.864,2.3355705802096054
17.868,2.3407739041140303
17.872,2.3345949569775257
17.876,2.34174952734611
17.88,2.3524813828989863
17.884,2.3423999428341631
17.888,2.324838724656729
17.892,2.3232126859365962
17.896,2.3394730731379241
17.9,2.3420747350901365
17.904,2.3336193337454461
17.908,2.3345949569775257
17.912,2.3560586680832785
17.916,2.373294678516686
17.92,2.3638636539399158
17.924,2.3554082525952253
17.928,2.356383875827305
17.932,2.3596359532675706
17.936,2.3485788899706677
17.94,2.3433755660662428
17.944,2.350530136434827
17.948,2.3612619919877034
17.952,2.3596359532675706
17.956,2.3518309674109332
17.96,2.3528065906430129
17.964,2.359310745523544
17.968,2.3502049286908004
17.972,2.3410991118580569
17.976,2.350530136434827
17.98,2.3677661468682345
17.984,2.3641888616839424
17.988,2.3515057596669067
17.992,2.3508553441788536
17.996,2.3654896926600486
18,2.370367808820447
18.004,2.3645140694279689
18.008,2.3690669778443407
18.012,2.39085589669412
18.016,2.4051650374312885
18.02,2.3963844283425715
18.024,2.3889046502299607
18.028,2.3980104670627043
18.032,2.404839829687262
18.036,2.3944331818784121
18.04,2.3876038192538545
18.044,2.3963844283425715
18.048,2.4041894141992088
18.052,2.3941079741343856
18.056,2.385002157301642
18.06,2.3931323509023059
18.064,2.4035389987111557
18.068,2.3983356748067308
18.072,2.3928071431582794
18.076,2.4093927381036337
18.08,2.4389866428100504
18.084,2.4549218222673517
18.088,2.4565478609874845
18.092,2.4591495229396969
18.096,2.4666293010523077
18.1,2.4653284700762015
18.104,2.4552470300113782
18.108,2.4513445370830595
18.112,2.4558974454994313
18.116,2.4575234842195641
18.12,2.442238720250316
18.124,2.4250027098169085
18.128,2.4142708542640321
18.132,2.4041894141992088
18.136,2.3915063121821731
18.14,2.3931323509023059
18.144,2.4129700232879259
18.148,2.4233766710967757
18.152,2.4087423226155806
18.156,2.3944331818784121
18.16,2.4002869212708902
18.164,2.4145960620080587
18.168,2.4123196077998728
18.172,2.4093927381036337
18.176,2.4266287485370412
18.18,2.4432143434823956
18.184,2.4376858118339442
18.188,2.425327917560935
18.192,2.4432143434823956
18.196,2.5037029838713352
18.2,2.5898830360383727
18.204,2.6939495141268708
18.208,2.8415938299149275
18.212,2.9924902231432498
18.216,3.0471251241397113
18.22,2.9329772059863899
18.224,2.7157384329766501
18.228,2.5209389943047427
18.232,2.3863029882777482
18.236,2.3228874781925697
18.24,2.3225622704485431
18.244,2.3541074216191191
18.248,2.3973600515746512
18.252,2.422401047864696
18.256,2.4380110195779707
18.26,2.4565478609874845
18.264,2.4620763926359359
18.268,2.4536209912912454
18.272,2.4454907976905815
18.276,2.4558974454994313
18.28,2.4689057552604936
18.284,2.4643528468441218
18.288,2.453946199035272
18.292,2.4523201603151392
18.296,2.4643528468441218
18.3,2.4633772236120421
18.304,2.453946199035272
18.308,2.4532957835472189
18.312,2.4695561707485467
18.316,2.4773611566051841
18.32,2.4698813784925733
18.324,2.4672797165403608
18.328,2.4780115720932372
18.332,2.4893938431341667
18.336,2.4793124030693434
18.34,2.4760603256290779
18.344,2.4835401037416887
18.348,2.4880930121580604
18.352,2.4809384417894762
18.356,2.4715074172127061
18.36,2.485491350205848
18.364,2.4981744522228837
18.368,2.4978492444788571
18.372,2.4932963360624854
18.376,2.4968736212467775
18.38,2.5040281916153617
18.384,2.5030525683832821
18.388,2.5124835929600522
18.392,2.5381750047381502
18.396,2.5687445326766465
18.4,2.5788259727414697
18.404,2.5697201559087262
18.408,2.5719966101169121
18.412,2.5895578282943461
18.416,2.5944359444547445
18.42,2.5898830360383727
18.424,2.5973628141509835
18.428,2.6201273562328424
18.432,2.6324852505058516
18.436,2.623379433673108
18.44,2.6162248633045238
18.444,2.6302087962976657
18.448,2.6471195989870466
18.452,2.6399650286184624
18.456,2.626306303369347
18.46,2.6253306801372673
18.464,2.6337860814819578
18.468,2.6178509020246565
18.472,2.5911838670144789
18.476,2.5807772192056291
18.48,2.5814276346936822
18.484,2.5651672474923544
18.488,2.5355733427859377
18.492,2.514109631680185
18.496,2.508255892287707
18.5,2.4890686353901401
18.504,2.4552470300113782
18.508,2.4415883047622629
18.512,2.4438647589704487
18.516,2.4412630970182363
18.52,2.425327917560935
18.524,2.4184985549363773
18.528,2.4204498014005367
18.532,2.4211002168885898
18.536,2.4103683613357134
18.54,2.4113439845677931
18.544,2.4334581111615989
18.548,2.4490680828748737
18.552,2.4380110195779707
18.556,2.4250027098169085
18.56,2.4318320724414662
18.564,2.4419135125062894
18.568,2.4331329034175724
18.572,2.4171977239602711
18.576,2.4129700232879259
18.58,2.4191489704244304
18.584,2.4175229317042977
18.588,2.4149212697520852
18.592,2.4285799950012006
18.596,2.4409378892742097
18.6,2.4318320724414662
18.604,2.4123196077998728
18.608,2.4129700232879259
18.612,2.4363849808578379
18.616,2.448092459642794
18.62,2.439311850554077
18.624,2.4357345653697848
18.628,2.4464664209226612
18.632,2.4552470300113782
18.636,2.448092459642794
18.64,2.4435395512264222
18.644,2.4532957835472189
18.648,2.456873068731511
18.652,2.4406126815301832
18.656,2.4279295795131475
18.66,2.4373606040899176
18.664,2.4513445370830595
18.668,2.4425639279943425
18.672,2.422401047864696
18.676,2.4230514633527491
18.68,2.4474420441547409
18.684,2.4565478609874845
18.688,2.4464664209226612
18.692,2.4487428751308471
18.696,2.4663040933082812
18.7,2.4682553397724405
18.704,2.4571982764755376
18.708,2.4516697448270861
18.712,2.4591495229396969
18.716,2.4588243151956704
18.72,2.442238720250316
18.724,2.4360597731138114
18.728,2.4500437061069533
18.732,2.4646780545881484
18.736,2.4578486919635907
18.74,2.448092459642794
18.744,2.4529705758031923
18.748,2.4611007694038562
18.752,2.4542714067792986
18.756,2.4611007694038562
18.76,2.4903694663662463
18.764,2.5183373323525302
18.768,2.5215894097927958
18.772,2.514109631680185
18.776,2.5176869168644771
18.78,2.5238658640009817
18.784,2.5072802690556273
18.788,2.4832148959976621
18.792,2.4845157269737683
18.796,2.5020769451512024
18.8,2.4968736212467775
18.804,2.4734586636768654
18.808,2.4601251461717766
18.812,2.4620763926359359
18.816,2.4506941215950064
18.82,2.4302060337213334
18.824,2.4324824879295193
18.828,2.4503689138509799
18.832,2.4659788855642546
18.836,2.4715074172127061
18.84,2.473783871420892
18.844,2.4832148959976621
18.848,2.4874425966700073
18.852,2.4705317939806264
18.856,2.4650032623321749
18.86,2.4835401037416887
18.864,2.4998004909430165
18.868,2.500125698687043
18.872,2.5163860858883709
18.876,2.5729722333489917
18.88,2.6643556094204541
18.884,2.7690725029970054
18.888,2.8936270689591765
18.892,3.0061489483923651
18.896,3.048751162859844
18.9,2.9407821918430272
18.904,2.718014887184836
18.908,2.4988248677109368
18.912,2.3768719637009781
18.916,2.3352453724655788
18.92,2.3342697492334992
18.924,2.3589855377795175
18.928,2.3999617135268636
18.932,2.4318320724414662
18.936,2.4334581111615989
18.94,2.4289052027452271
18.944,2.4380110195779707
18.948,2.4477672518987674
18.952,2.4363849808578379
18.956,2.4263035407930147
18.96,2.428254787257174
18.964,2.4386614350660238
18.968,2.4357345653697848
18.972,2.4289052027452271
18.976,2.4315068646974396
18.98,2.4419135125062894
18.984,2.4383362273219973
18.988,2.4240270865848288
18.992,2.4191489704244304
18.996,2.431181656953413
19,2.4386614350660238
19.004,2.4331329034175724
19.008,2.4357345653697848
19.012,2.4484176673868205
19.016,2.4526453680591658
19.02,2.4445151744585019
19.024,2.442238720250316
19.028,2.4581738997076172
19.032,2.4695561707485467
19.036,2.4607755616598297
19.04,2.4500437061069533
19.044,2.4617511848919094
19.048,2.4783367798372637
19.052,2.4786619875812903
19.056,2.4754099101410247
19.06,2.4867921811819542
19.064,2.5059794380795211
19.068,2.5121583852160256
19.072,2.5144348394242115
19.076,2.5310204343695659
19.08,2.5472808215708937
19.084,2.5508581067551859
19.088,2.5453295751067344
19.092,2.5521589377312921
19.096,2.5697201559087262
