Timestamp,2/29/2024 10:40:26 AM
Interval,0.004
Channel name,"Input 0"
Unit,"V"
0,2.6559002080757637
0.004,2.2949196122062858
0.008,2.1339417789131403
0.012,2.5537849764514249
0.016,2.6994780457753222
0.02,2.3775223791890312
0.024,2.1232099233602639
0.028,2.4874425966700073
0.032,2.7160636407206766
0.036,2.4467916286666878
0.04,2.1196326381759718
0.044,2.4123196077998728
0.048,2.7176896794408094
0.052,2.5128088007040787
0.056,2.1401207260496449
0.06,2.3303672563051805
0.064,2.6991528380312957
0.068,2.5674437017005403
0.072,2.1778448243567254
0.076,2.2571955138992053
0.08,2.6679328946047463
0.084,2.6201273562328424
0.088,2.2376830492576119
0.092,2.1993085354624782
0.096,2.6282575498335063
0.1,2.6858193205262069
0.104,2.3352453724655788
0.108,2.1703650462441146
0.112,2.5583378848677967
0.116,2.6828924508299679
0.12,2.3544326293631457
0.124,2.1001201735343784
0.128,2.4513445370830595
0.132,2.6793151656456757
0.136,2.4116691923118196
0.14,2.0913395644456614
0.144,2.3814248721173499
0.148,2.68646973601426
0.152,2.4689057552604936
0.156,2.0968680960941128
0.16,2.2978464819025248
0.164,2.6679328946047463
0.168,2.5313456421135925
0.172,2.1345921944011934
0.176,2.1980077044863719
0.18,2.577199934021337
0.184,2.4841905192297418
0.188,2.0994697580463253
0.192,2.1280880395206623
0.196,2.6767135036934633
0.2,2.9063101709762122
0.204,2.7534625312837306
0.208,2.7658204255567398
0.212,3.2110298271290958
0.216,3.3268037840025499
0.22,2.7827312282461207
0.224,2.192804380581947
0.228,2.3677661468682345
0.232,2.5323212653456721
0.236,2.258821552619338
0.24,1.9762160230602603
0.244,2.3176841542881448
0.248,2.6458187680109404
0.252,2.451019329339033
0.256,2.0867866560292896
0.26,2.2897162883018609
0.264,2.6454935602669138
0.268,2.508255892287707
0.272,2.1157301452476531
0.276,2.2048370671109296
0.28,2.611671954888152
0.284,2.5651672474923544
0.288,2.1876010566775221
0.292,2.1596331906912383
0.296,2.5781755572534166
0.3,2.6106963316560723
0.304,2.2539434364589397
0.308,2.1141041065275203
0.312,2.5267927336972207
0.316,2.6572010390518699
0.32,2.3368714111857116
0.324,2.1027218354865909
0.328,2.4848409347177949
0.332,2.712161147792358
0.336,2.4383362273219973
0.34,2.1219090923841577
0.344,2.4243522943288554
0.348,2.7228930033452343
0.352,2.5128088007040787
0.356,2.1505273738584947
0.36,2.3632132384518627
0.364,2.7398038060346153
0.368,2.6077694619598333
0.372,2.224349531752523
0.376,2.3241883091686759
0.38,2.7381777673144825
0.384,2.68646973601426
0.388,2.3076027142233215
0.392,2.2890658728138078
0.396,2.7193157181609422
0.4,2.75541377774789
0.404,2.3986608825507574
0.408,2.2620736300596036
0.412,2.6731362185091712
0.416,2.8032193161197938
0.42,2.4858165579498746
0.424,2.25296781322686
0.428,2.611671954888152
0.432,2.82435781948152
0.436,2.548581652547
0.44,2.2289024401688948
0.444,2.5089063077757601
0.448,2.7879345521505456
0.452,2.560289131331956
0.456,2.1866254334454425
0.46,2.3768719637009781
0.464,2.7193157181609422
0.468,2.5580126771237701
0.472,2.1602836061792914
0.476,2.2513417745067272
0.48,2.6445179370348342
0.484,2.5684193249326199
0.488,2.1762187856365927
0.492,2.1602836061792914
0.496,2.5820780501817353
0.5,2.6022409303113818
0.504,2.2341057640733197
0.508,2.1046730819507502
0.512,2.5167112936323974
0.516,2.6276071343454532
0.52,2.2949196122062858
0.524,2.0640221139474306
0.528,2.4302060337213334
0.532,2.6386641976423562
0.536,2.3615871997317299
0.54,2.0610952442511916
0.544,2.3713434320525266
0.548,2.6708597643009853
0.552,2.4578486919635907
0.556,2.1036974587186705
0.56,2.324838724656729
0.564,2.6841932818060741
0.568,2.5284187724173535
0.572,2.1391451028175652
0.576,2.2467888660903554
0.58,2.6529733383795246
0.584,2.5905334515264258
0.588,2.2110160142474342
0.592,2.1989833277184516
0.596,2.6172004865366034
0.6,2.6347617047140375
0.604,2.2676021617080551
0.608,2.140771141537698
0.612,2.5580126771237701
0.616,2.66663206362864
0.62,2.3290664253290743
0.624,2.1020714199985377
0.628,2.4812636495335028
0.632,2.6832176585739944
0.636,2.3957340128545184
0.64,2.0926403954217676
0.644,2.4184985549363773
0.648,2.7092342780961189
0.652,2.4780115720932372
0.656,2.1128032755514141
0.66,2.3355705802096054
0.664,2.6926486831507646
0.668,2.5391506279702298
0.672,2.1580071519711055
0.676,2.2780088095169049
0.68,2.6802907888777554
0.684,2.6002896838472225
0.688,2.2113412219914608
0.692,2.2071135213191155
0.696,2.6328104582498781
0.7,2.6415910673385952
0.704,2.2695534081722144
0.708,2.146624880930176
0.712,2.5739478565810714
0.716,2.6828924508299679
0.72,2.350530136434827
0.724,2.1300392859848216
0.728,2.5167112936323974
0.732,2.7144376020005438
0.736,2.4357345653697848
0.74,2.149551750626415
0.744,2.4698813784925733
0.748,2.7537877390277572
0.752,2.522890240768902
0.756,2.1599583984352648
0.76,2.3716686397965532
0.764,2.7092342780961189
0.768,2.5417522899224423
0.772,2.1485761273943353
0.776,2.2633744610357098
0.78,2.6734614262531977
0.784,2.5937855289666913
0.788,2.1983329122303985
0.792,2.1954060425341595
0.796,2.6220786026970018
0.8,2.6305340040416922
0.804,2.2571955138992053
0.808,2.1397955183056183
0.812,2.5606143390759826
0.816,2.6539489616116043
0.82,2.2926431579980999
0.824,2.0376802866812795
0.828,2.4084171148715541
0.832,2.6396398208744358
0.836,2.4552470300113782
0.84,2.3115052071516402
0.844,2.7502104538434651
0.848,3.1882652850472368
0.852,3.1437118241155986
0.856,2.8832204211503267
0.86,2.9589938255085144
0.864,2.9778558746620547
0.868,2.5332968885777518
0.872,2.0454852725379169
0.876,2.1706902539881412
0.88,2.6025661380554084
0.884,2.560289131331956
0.888,2.1999589509505313
0.892,2.2168697536399122
0.896,2.6393146131304093
0.9,2.6386641976423562
0.904,2.261748422315577
0.908,2.152478620322654
0.912,2.5658176629804075
0.916,2.6601279087481089
0.92,2.3251639324007556
0.924,2.1154049375036266
0.928,2.4984996599669103
0.932,2.689396605710499
0.936,2.4087423226155806
0.94,2.120933469152078
0.944,2.4445151744585019
0.948,2.723868626577314
0.952,2.4965484135027509
0.956,2.1515029970905744
0.96,2.39085589669412
0.964,2.7388281828025356
0.968,2.5762243107892573
0.972,2.1957312502781861
0.976,2.3290664253290743
0.98,2.7346004821301904
0.984,2.6529733383795246
0.988,2.2666265384759754
0.992,2.2780088095169049
0.996,2.7076082393759862
1,2.7072830316319596
1.004,2.3310176717932336
1.008,2.2175201691279653
1.012,2.6471195989870466
1.016,2.7528121157956775
1.02,2.419474178168457
1.024,2.2136176761996467
1.028,2.603541761287488
1.032,2.7950891225191299
1.036,2.5144348394242115
1.04,2.2289024401688948
1.044,2.545654782850761
1.048,2.8159024181368295
1.052,2.5895578282943461
1.056,2.250040943530621
1.06,2.4793124030693434
1.064,2.8191544955770951
1.068,2.654924584843684
1.072,2.2783340172609314
1.076,2.4012625445029698
1.08,2.7863085134304129
1.084,2.6900470211985521
1.088,2.2919927425100468
1.092,2.2910171192779671
1.096,2.7050065774237737
1.1,2.695250345102977
1.104,2.3023993903188966
1.108,2.1797960708208848
1.112,2.5885822050622664
1.116,2.6620791552122682
1.12,2.3076027142233215
1.124,2.0971933038381394
1.128,2.4793124030693434
1.132,2.6448431447788607
1.136,2.34174952734611
1.14,2.0542658816266339
1.144,2.3771971714450046
1.148,2.6360625356901437
1.152,2.399636505782837
1.156,2.0584935822989792
1.16,2.3063018832472153
1.164,2.6471195989870466
1.168,2.4802880263014231
1.172,2.1046730819507502
1.176,2.2467888660903554
1.18,2.6376885744102765
1.184,2.5437035363866016
1.188,2.1589827752031852
1.192,2.192804380581947
1.196,2.6237046414171346
1.2,2.6165500710485503
1.204,2.2402847112098243
1.208,2.1476005041622557
1.212,2.5697201559087262
1.216,2.6513472996593919
1.22,2.3063018832472153
1.224,2.1082503671350423
1.228,2.5095567232638132
1.232,2.6867949437582865
1.236,2.3853273650456686
1.24,2.1030470432306174
1.244,2.4441899667144753
1.248,2.7108603168162517
1.252,2.4659788855642546
1.256,2.1189822226879187
1.26,2.376221548212925
1.264,2.7215921723691281
1.268,2.5531345609633718
1.272,2.1736171236843802
1.276,2.3147572845919058
1.28,2.7111855245602783
1.284,2.6162248633045238
1.288,2.2227234930323903
1.292,2.2474392815784086
1.296,2.6783395424135961
1.3,2.6659816481405869
1.304,2.2848381721414626
1.308,2.1924791728379205
1.312,2.6259810956253204
1.316,2.7037057464476675
1.32,2.3531317983870395
1.324,2.1511777893465478
1.328,2.5505328990111593
1.332,2.7215921723691281
1.336,2.419474178168457
1.34,2.1388198950735386
1.344,2.4806132340454496
1.348,2.7368769363383763
1.352,2.4910198818542995
1.356,2.1498769583704416
1.36,2.4038642064551823
1.364,2.7284215349936858
1.368,2.5430531208985485
1.372,2.1651617223396897
1.376,2.3134564536157995
1.38,2.7030553309596144
1.384,2.6041921767755412
1.388,2.215568922663806
1.392,2.2458132428582758
1.396,2.6692337255808525
1.4,2.6611035319801886
1.404,2.2867894186056219
1.408,2.2041866516228765
1.412,2.632160042761825
1.416,2.720941756881075
1.42,2.3846769495576154
1.424,2.1947556270461064
1.428,2.5775251417653635
1.432,2.7352508976182435
1.436,2.4240270865848288
1.44,2.1371938563534059
1.444,2.4601251461717766
1.448,2.7095594858401455
1.452,2.4594747306837235
1.456,2.1183318071998656
1.46,2.365164484916022
1.464,2.695250345102977
1.468,2.5154104626562912
1.472,2.1423971802578308
1.476,2.2981716896465514
1.48,2.6900470211985521
1.484,2.5804520114616025
1.488,2.1882514721655753
1.492,2.2181705846160185
1.496,2.6243550569051877
1.5,2.5677689094445668
1.504,2.1658121378277428
1.508,2.1147545220155735
1.512,2.6412658595945686
1.516,2.8819195901742205
1.52,2.7303727814578451
1.524,2.7066326161439065
1.528,3.1697284436377231
1.532,3.4019267728726845
1.536,3.034116814378649
1.54,2.4490680828748737
1.544,2.5007761141750962
1.548,2.6289079653215595
1.552,2.3528065906430129
1.556,2.0236963536881376
1.56,2.3176841542881448
1.564,2.6757378804613836
1.568,2.5108575542399194
1.572,2.140771141537698
1.576,2.3023993903188966
1.58,2.6848436972941272
1.584,2.5736226488370448
1.588,2.1836985637492035
1.592,2.2266259859607089
1.596,2.6500464686832856
1.6,2.6240298491611611
1.604,2.250040943530621
1.608,2.1729667081963271
1.612,2.6084198774478864
1.616,2.6793151656456757
1.62,2.3329689182573929
1.624,2.1498769583704416
1.628,2.5534597687073983
1.632,2.7167140562087297
1.636,2.4103683613357134
1.64,2.1388198950735386
1.644,2.4789871953253169
1.648,2.7287467427377123
1.652,2.4841905192297418
1.656,2.1528038280666806
1.66,2.4080919071275275
1.664,2.7303727814578451
1.668,2.5547605996835046
1.672,2.1876010566775221
1.676,2.338822657649871
1.68,2.7287467427377123
1.684,2.6344364969700109
1.688,2.2578459293872584
1.692,2.2988221051346045
1.696,2.7154132252326235
1.7,2.6998032535193488
1.704,2.3332941260014195
1.708,2.2663013307319488
1.712,2.6890713979664724
1.716,2.758340647444129
1.72,2.4201245936565101
1.724,2.2448376196261961
1.728,2.6308592117857188
1.732,2.7820808127580676
1.736,2.4835401037416887
1.74,2.2220730775443371
1.744,2.5560614306596108
1.748,2.7921622528228909
1.752,2.5489068602910265
1.756,2.2197966233361512
1.76,2.465653677820228
1.764,2.7693977107410319
1.768,2.5788259727414697
1.772,2.1993085354624782
1.776,2.350530136434827
1.78,2.7131367710244376
1.784,2.5944359444547445
1.788,2.1931295883259736
1.792,2.2289024401688948
1.796,2.6360625356901437
1.8,2.6012653070793021
1.804,2.2158941304078326
1.808,2.1462996731861494
1.812,2.5739478565810714
1.816,2.6363877434341703
1.82,2.287439834093675
1.824,2.1105268213432282
1.828,2.5137844239361584
1.832,2.6594774932600558
1.836,2.3456520202744287
1.84,2.0822337476129178
1.844,2.4344337343936786
1.848,2.6763882959494367
1.852,2.4227262556087226
1.856,2.0929656031657942
1.86,2.3693921855883673
1.864,2.6942747218708973
1.868,2.5024021528952289
1.872,2.1310149092169013
1.876,2.2975212741584983
1.88,2.6799655811337288
1.884,2.566142870724434
1.888,2.1814221095410176
1.892,2.2389838802337181
1.896,2.6650060249085072
1.9,2.6386641976423562
1.904,2.2614232145715505
1.908,2.1924791728379205
1.912,2.6158996555604972
1.916,2.6692337255808525
1.92,2.3134564536157995
1.924,2.1401207260496449
1.928,2.5479312370589469
1.932,2.6962259683350567
1.936,2.3830509108374827
1.94,2.1186570149438921
1.944,2.4637024313560687
1.948,2.6913478521746583
1.952,2.4360597731138114
1.956,2.1163805607357062
1.96,2.3885794424859341
1.964,2.6910226444306318
1.968,2.4958979980146978
1.972,2.1293888704967685
1.976,2.296220443182392
1.98,2.6617539474682417
1.984,2.5482564448029734
1.988,2.1687390075239819
1.992,2.2259755704726558
1.996,2.6302087962976657
2,2.5944359444547445
2.004,2.2142680916876998
2.008,2.1531290358107071
2.012,2.5775251417653635
2.016,2.6324852505058516
2.02,2.2799600559810642
2.024,2.1157301452476531
2.028,2.5271179414412472
2.032,2.6708597643009853
2.036,2.3498797209467739
2.04,2.0890631102374755
2.044,2.4406126815301832
2.048,2.6773639191815164
2.052,2.419474178168457
2.056,2.0932908109098207
2.06,2.3677661468682345
2.064,2.6783395424135961
2.068,2.47963761081337
2.072,2.1102016135992017
2.076,2.2867894186056219
2.08,2.6614287397242151
2.084,2.5375245892500971
2.088,2.1528038280666806
2.092,2.2223982852883637
2.096,2.6464691834989935
2.1,2.6067938387277536
2.104,2.2302032711450011
2.108,2.1820725250290707
2.112,2.620452563976869
2.116,2.6780143346695695
2.12,2.3342697492334992
2.124,2.1758935778925661
2.128,2.5798015959735494
2.132,2.6991528380312957
2.136,2.3690669778443407
2.14,2.1049982896947768
2.144,2.4617511848919094
2.148,2.6815916198538616
2.152,2.4116691923118196
2.156,2.0880874870053958
2.16,2.3830509108374827
2.164,2.6887461902224459
2.168,2.4809384417894762
2.172,2.1105268213432282
2.176,2.3059766755031887
2.18,2.6815916198538616
2.184,2.5518337299872655
2.188,2.1667877610598225
2.192,2.235406595049426
2.196,2.6318348350177985
2.2,2.548581652547
2.204,2.1423971802578308
2.208,2.1251611698244233
2.212,2.6493960531952325
2.216,2.8546021396759897
2.22,2.6910226444306318
2.224,2.7030553309596144
2.228,3.1879400773032103
2.232,3.4025771883607376
2.236,3.0243605820578523
2.24,2.4734586636768654
2.244,2.5339473040658049
2.248,2.6237046414171346
2.252,2.3326437105133664
2.256,2.0246719769202173
2.26,2.3342697492334992
2.264,2.6614287397242151
2.268,2.4819140650215559
2.272,2.1277628317766357
2.276,2.3115052071516402
2.28,2.6708597643009853
2.284,2.542727913154522
2.288,2.1632104758755304
2.292,2.2341057640733197
2.296,2.6399650286184624
2.3,2.5973628141509835
2.304,2.227276401448762
2.308,2.1895523031416815
2.312,2.6132979936082847
2.316,2.6568758313078433
2.32,2.3066270909912419
2.324,2.155405490018893
2.328,2.5700453636527527
2.332,2.701104084495455
2.336,2.3889046502299607
2.34,2.1505273738584947
2.344,2.5219146175368223
2.348,2.7430558834748808
2.352,2.4835401037416887
2.356,2.1739423314284068
2.36,2.4689057552604936
2.364,2.7635439713485539
2.368,2.5635412087722216
2.372,2.209715183271328
2.376,2.4097179458476603
2.38,2.7645195945806336
2.384,2.635086912458064
2.388,2.2555694751790725
2.392,2.3414243196020834
2.396,2.749560038355412
2.4,2.701104084495455
2.404,2.3261395556328353
2.408,2.3007733515987638
2.412,2.7323240279220045
2.416,2.7768774888536427
2.42,2.4250027098169085
2.424,2.2802852637250908
2.428,2.6874453592463396
2.432,2.8162276258808561
2.436,2.500125698687043
2.44,2.2643500842677895
2.444,2.6243550569051877
2.448,2.8415938299149275
2.452,2.5752486875571776
2.456,2.2643500842677895
2.46,2.5417522899224423
2.464,2.8168780413689092
2.468,2.5950863599427976
2.472,2.2175201691279653
2.476,2.3905306889500935
2.48,2.729722365969792
2.484,2.5846797121339478
2.488,2.1947556270461064
2.492,2.266951746220002
2.496,2.6604531164921355
2.5,2.5963871909189038
2.504,2.2093899755273014
2.508,2.1726415004523005
2.512,2.5970376064069569
2.516,2.623379433673108
2.52,2.258821552619338
2.524,2.1141041065275203
2.528,2.5362237582739908
2.532,2.6611035319801886
2.536,2.3303672563051805
2.54,2.0949168496299535
2.544,2.4669545087963343
2.548,2.6685833100927994
2.552,2.3895550657180138
2.556,2.0874370715173427
2.56,2.393782766390359
2.564,2.6799655811337288
2.568,2.4614259771478828
2.572,2.1046730819507502
2.576,2.3095539606874809
2.58,2.6702093488129321
2.584,2.5355733427859377
2.588,2.1560559055069461
2.592,2.2399595034657978
2.596,2.6341112892259844
2.6,2.5742730643250979
2.604,2.1970320812542923
2.608,2.1762187856365927
2.612,2.5983384373830631
2.616,2.6256558878812939
2.62,2.2627240455476567
2.624,2.123860338848317
2.628,2.5420774976664688
2.632,2.6585018700279761
2.636,2.3378470344177913
2.64,2.1108520290872548
2.644,2.4793124030693434
2.648,2.6838680740620475
2.652,2.4123196077998728
2.656,2.112152860063361
2.66,2.4035389987111557
2.664,2.6861445282702334
2.668,2.4750847023969982
2.672,2.1228847156162374
2.676,2.3251639324007556
2.68,2.6757378804613836
2.684,2.5404514589463361
2.688,2.1706902539881412
2.692,2.2643500842677895
2.696,2.6604531164921355
2.7,2.5963871909189038
2.704,2.2165445458958857
2.708,2.1996337432065047
2.712,2.6315096272737719
2.716,2.6526481306354981
2.72,2.2825617179332767
2.724,2.1511777893465478
2.728,2.5736226488370448
2.732,2.6858193205262069
2.736,2.3606115764996503
2.74,2.1401207260496449
2.744,2.5238658640009817
2.748,2.7176896794408094
2.752,2.4367101886018645
2.756,2.1342669866571669
2.76,2.4386614350660238
2.764,2.7079334471200127
2.768,2.4858165579498746
2.772,2.1332913634250872
2.776,2.3580099145474378
2.78,2.7128115632804111
2.784,2.5622403777961154
2.788,2.1846741869812831
2.792,2.2945944044622593
2.796,2.6978520070551895
2.8,2.6246802646492142
2.804,2.2432115809060633
2.808,2.2308536866330542
2.812,2.6559002080757637
2.816,2.6698841410689056
2.82,2.3115052071516402
2.824,2.1895523031416815
2.828,2.6097207084239926
2.832,2.7144376020005438
2.836,2.3837013263255358
2.84,2.1541046590427868
2.844,2.5241910717450082
2.848,2.7261450807854999
2.852,2.4617511848919094
2.856,2.1729667081963271
2.86,2.4747594946529716
2.864,2.7401290137786418
2.868,2.5063046458235476
2.872,2.1401207260496449
2.876,2.3440259815542959
2.88,2.6737866339972243
2.884,2.5144348394242115
2.888,2.1339417789131403
2.892,2.2370326337695587
2.896,2.635086912458064
2.9,2.5762243107892573
2.904,2.2015849896706641
2.908,2.1866254334454425
2.912,2.5999644761031959
2.916,2.6162248633045238
2.92,2.2575207216432318
2.924,2.1410963492817245
2.928,2.5612647545640357
2.932,2.654924584843684
2.936,2.2991473128786311
2.94,2.0558919203467667
2.944,2.448092459642794
2.948,2.7160636407206766
2.952,2.5824032579257619
2.956,2.4666293010523077
2.96,2.9014320548158139
2.964,3.3261533685144968
2.968,3.2744453372142743
2.972,2.9258226356178056
2.976,2.8692364881571848
2.98,2.8090730555122718
2.984,2.4015877522469964
2.988,1.9573539739067201
2.992,2.0919899799337145
2.996,2.5238658640009817
3,2.4929711283184588
3.004,2.1622348526434507
3.008,2.1983329122303985
3.012,2.6324852505058516
3.016,2.6454935602669138
3.02,2.2832121334213298
3.024,2.1726415004523005
3.028,2.5866309585981071
3.032,2.6789899579016492
3.036,2.3518309674109332
3.04,2.1417467647697777
3.044,2.5219146175368223
3.048,2.712161147792358
3.052,2.4285799950012006
3.056,2.1342669866571669
3.06,2.4487428751308471
3.064,2.7248442498093937
3.068,2.5053290225914679
3.072,2.1625600603874773
3.076,2.3941079741343856
3.08,2.7342752743861638
3.084,2.5846797121339478
3.088,2.218495792360045
3.092,2.3394730731379241
3.096,2.7222425878571812
3.1,2.6497212609392591
3.104,2.2770331862848252
3.108,2.287439834093675
3.112,2.7059822006558534
3.116,2.7196409259049688
3.12,2.3645140694279689
3.124,2.2519921899947803
3.128,2.6627295707003213
3.132,2.767121256532846
3.136,2.4438647589704487
3.14,2.2461384506023023
3.144,2.6311844195297454
3.148,2.8224065730173606
3.152,2.5534597687073983
3.156,2.2750819398206659
3.16,2.5872813740861602
3.164,2.850049231259618
3.168,2.629233173065586
3.172,2.2890658728138078
3.176,2.5118331774719991
3.18,2.8441954918671399
3.184,2.68646973601426
3.188,2.3118304148956668
3.192,2.419474178168457
3.196,2.786958928918466
3.2,2.7095594858401455
3.204,2.3329689182573929
3.208,2.32191185496049
3.212,2.7066326161439065
3.216,2.6884209824784193
3.22,2.3095539606874809
3.224,2.1954060425341595
3.228,2.594761152198771
3.232,2.6728110107651446
3.236,2.3310176717932336
3.24,2.1199578459199984
3.244,2.4916702973423526
3.248,2.6604531164921355
3.252,2.3713434320525266
3.256,2.0903639412135817
3.26,2.4087423226155806
3.264,2.6539489616116043
3.268,2.4158968929841649
3.272,2.0780060469405726
3.276,2.3134564536157995
3.28,2.6386641976423562
3.284,2.4760603256290779
3.288,2.1085755748790689
3.292,2.2376830492576119
3.296,2.6080946697038598
3.3,2.5202885788166896
3.304,2.1459744654421229
3.308,2.1667877610598225
3.312,2.5814276346936822
3.316,2.5794763882295229
3.32,2.218495792360045
3.324,2.1241855465923436
3.328,2.5440287441306282
3.332,2.6298835885536391
3.336,2.2975212741584983
3.34,2.1036974587186705
3.344,2.4981744522228837
3.348,2.6698841410689056
3.352,2.3752459249808453
3.356,2.0988193425582722
3.36,2.4367101886018645
3.364,2.6972015915671363
3.368,2.4565478609874845
3.372,2.1212586768961046
3.376,2.3723190552846063
3.38,2.6975267993111629
3.384,2.5154104626562912
3.388,2.1332913634250872
3.392,2.2718298623804003
3.396,2.6594774932600558
3.4,2.5687445326766465
3.404,2.186950641189469
3.408,2.2035362361348234
3.412,2.6250054723932408
3.416,2.6139484090963379
3.42,2.2435367886500899
3.424,2.1482509196503088
3.428,2.5729722333489917
3.432,2.6464691834989935
3.436,2.3040254290390294
3.44,2.1095511981111486
3.444,2.500125698687043
3.448,2.672485803021118
3.452,2.3840265340695623
3.456,2.1108520290872548
3.46,2.4428891357383691
3.464,2.6906974366866052
3.468,2.4454907976905815
3.472,2.1056487051828299
3.476,2.3544326293631457
3.48,2.6737866339972243
3.484,2.5027273606392555
3.488,2.1267872085445561
3.492,2.2659761229879223
3.496,2.6357373279461171
3.5,2.5443539518746547
3.504,2.1762187856365927
3.508,2.2028858206467703
3.512,2.5931351134786382
3.516,2.5749234798131511
3.52,2.2158941304078326
3.524,2.1368686486093793
3.528,2.548581652547
3.532,2.6289079653215595
3.536,2.2958952354383655
3.54,2.1105268213432282
3.544,2.4949223747826181
3.548,2.6633799861883745
3.552,2.3723190552846063
3.556,2.1023966277425643
3.56,2.434108526649652
3.564,2.6874453592463396
3.568,2.4464664209226612
3.572,2.1066243284149095
3.576,2.3502049286908004
3.58,2.6640304016764276
3.584,2.4874425966700073
3.588,2.1186570149438921
3.592,2.2692282004281878
3.596,2.6487456377071794
3.6,2.5511833144992124
3.604,2.1732919159403536
3.608,2.2054874825989828
3.612,2.61752569428063
3.616,2.603541761287488
3.62,2.2422359576739836
3.624,2.1690642152680084
3.628,2.603541761287488
3.632,2.6968763838231098
3.636,2.3710182243085001
3.64,2.1846741869812831
3.644,2.5752486875571776
3.648,2.720941756881075
3.652,2.4054902451753151
3.656,2.123860338848317
3.66,2.4545966145233251
3.664,2.6848436972941272
3.668,2.4350841498817317
3.672,2.1056487051828299
3.676,2.3706930165644735
3.68,2.689396605710499
3.684,2.5053290225914679
3.688,2.1316653247049544
3.692,2.2893910805578344
3.696,2.6640304016764276
3.7,2.5534597687073983
3.704,2.1765439933806192
3.708,2.2171949613839388
3.712,2.6129727858642582
3.716,2.5505328990111593
3.72,2.1661373455717694
3.724,2.1388198950735386
3.728,2.6757378804613836
3.732,2.918993272993248
3.736,2.772974995925324
3.74,2.758340647444129
3.744,3.2240381368901581
3.748,3.4399760789237916
3.752,3.0211085046175867
3.756,2.3902054812060669
3.76,2.4256531253049616
3.764,2.5472808215708937
3.768,2.2893910805578344
3.772,1.9797933082445525
3.776,2.2802852637250908
3.78,2.6464691834989935
3.784,2.4939467515505385
3.788,2.1427223880018573
3.792,2.3007733515987638
3.796,2.6689085178368259
3.8,2.5648420397483278
3.804,2.1924791728379205
3.808,2.2334553485852666
3.812,2.6386641976423562
3.816,2.6191517330007628
3.82,2.2571955138992053
3.824,2.1856498102133628
3.828,2.5983384373830631
3.832,2.6682581023487728
3.836,2.3290664253290743
3.84,2.1482509196503088
3.844,2.5371993815060705
3.848,2.6988276302872691
3.852,2.4080919071275275
3.856,2.1550802822748665
3.86,2.4929711283184588
3.864,2.7407794292666949
3.868,2.5014265296631493
3.872,2.1817473172850441
3.876,2.4432143434823956
3.88,2.7498852460994385
3.884,2.5814276346936822
3.888,2.2256503627286293
3.892,2.3804492488852702
3.896,2.729722365969792
3.9,2.6302087962976657
3.904,2.2672769539640285
3.908,2.3209362317284103
3.912,2.7193157181609422
3.916,2.7102099013281986
3.92,2.3615871997317299
3.924,2.296220443182392
3.928,2.6945999296149239
3.932,2.7625683481164742
3.936,2.4344337343936786
3.94,2.2640248765237629
3.944,2.6448431447788607
3.948,2.8041949393518735
3.952,2.5254919027211145
3.956,2.2744315243326128
3.96,2.5960619831748772
3.964,2.82435781948152
3.968,2.5843545043899212
3.972,2.2666265384759754
3.976,2.5157356704003178
3.98,2.8035445238638204
3.984,2.6009400993352756
3.988,2.2246747394965496
3.992,2.3765467559569515
3.996,2.732649235666031
4,2.6093955006799661
4.004,2.2197966233361512
4.008,2.2565450984111521
4.012,2.6464691834989935
4.016,2.5970376064069569
4.02,2.221422662056284
4.024,2.1648365145956632
4.028,2.5879317895742133
4.032,2.6422414828266483
4.036,2.2965456509264186
4.04,2.1248359620803967
4.044,2.5222398252808489
4.048,2.6692337255808525
4.052,2.3654896926600486
4.056,2.1082503671350423
4.06,2.45979993842775
4.064,2.6959007605910301
4.068,2.4438647589704487
4.072,2.1183318071998656
4.076,2.3941079741343856
4.08,2.7050065774237737
4.084,2.5232154485129286
4.088,2.1612592294113711
4.092,2.330692464049207
4.096,2.6929738908947911
4.1,2.5794763882295229
4.104,2.2032110283907969
4.108,2.258821552619338
4.112,2.660778324236162
4.116,2.6360625356901437
4.12,2.2692282004281878
4.124,2.2012597819266375
4.128,2.6100459161680192
4.132,2.6676076868607197
4.136,2.3310176717932336
4.14,2.1684137997799553
4.144,2.557362261635717
4.148,2.7014292922394816
4.152,2.3986608825507574
4.156,2.1430475957458839
4.16,2.4828896882536355
4.164,2.7167140562087297
4.168,2.4653284700762015
4.172,2.1482509196503088
4.176,2.4045146219432354
4.18,2.7020797077275347
4.184,2.511182761983946
4.188,2.1505273738584947
4.192,2.3170337388000917
4.196,2.6744370494852774
4.2,2.5531345609633718
4.204,2.1833733560051769
4.208,2.2373578415135853
4.212,2.6279323420894798
4.216,2.591834282502532
4.22,2.2279268169368152
4.224,2.1690642152680084
4.228,2.580126803717576
4.232,2.6373633666662499
4.236,2.2991473128786311
4.24,2.1384946873295121
4.244,2.5339473040658049
4.248,2.672485803021118
4.252,2.3758963404688984
4.256,2.1271124162885826
4.26,2.4773611566051841
4.264,2.7053317851678003
4.268,2.4526453680591658
4.272,2.1394703105615918
4.276,2.4155716852401383
4.28,2.7144376020005438
4.284,2.5215894097927958
4.288,2.1602836061792914
4.292,2.3303672563051805
4.296,2.6783395424135961
4.3,2.5593135080998763
4.304,2.1980077044863719
4.308,2.2659761229879223
4.312,2.6611035319801886
4.316,2.6178509020246565
4.32,2.2458132428582758
4.324,2.1924791728379205
4.328,2.5999644761031959
4.332,2.6464691834989935
4.336,2.3040254290390294
4.34,2.1476005041622557
4.344,2.5541101841954514
4.348,2.7024049154715613
4.352,2.3941079741343856
4.356,2.1410963492817245
4.36,2.4923207128304057
4.364,2.7215921723691281
4.368,2.4682553397724405
4.372,2.1544298667868134
4.376,2.434108526649652
4.38,2.7310231969458982
4.384,2.5319960576016456
4.388,2.1667877610598225
4.392,2.3495545132027473
4.396,2.720941756881075
4.4,2.623379433673108
4.404,2.2614232145715505
4.408,2.3316680872812867
4.412,2.7280963272496592
4.416,2.6702093488129321
4.42,2.2913423270219937
4.424,2.2363822182815056
4.428,2.6419162750826217
4.432,2.6744370494852774
4.436,2.3254891401447821
4.44,2.172316292708274
4.444,2.5742730643250979
4.448,2.704030954191694
4.452,2.3983356748067308
4.456,2.1596331906912383
4.46,2.5121583852160256
4.464,2.7271207040175796
4.468,2.4698813784925733
4.472,2.1589827752031852
4.476,2.4396370582981035
4.48,2.7248442498093937
4.484,2.5040281916153617
4.488,2.1189822226879187
4.492,2.2864642108615953
4.496,2.6669572713726666
4.5,2.651997715147445
4.504,2.4562226532434579
4.508,2.6897218134545255
4.512,3.2168835665215738
4.516,3.3726580759102944
4.52,3.1313539298425894
4.524,2.9658231881330721
4.528,2.9963927160715684
4.532,2.6568758313078433
4.536,2.1254863775684498
4.54,1.9488985725620296
4.544,2.3726442630286328
4.548,2.5518337299872655
4.552,2.2919927425100468
4.556,2.0949168496299535
4.56,2.4637024313560687
4.564,2.7024049154715613
4.568,2.4487428751308471
4.572,2.1368686486093793
4.576,2.4168725162162445
4.58,2.7079334471200127
4.584,2.511182761983946
4.588,2.1606088139233179
4.592,2.3450016047863755
4.596,2.6985024225432426
4.6,2.5693949481646996
4.604,2.2035362361348234
4.608,2.2861390031175688
4.612,2.6789899579016492
4.616,2.6315096272737719
4.62,2.269878615916241
4.624,2.2347561795613728
4.628,2.6438675215467811
4.632,2.6884209824784193
4.636,2.3547578371071722
4.64,2.2165445458958857
4.644,2.6087450851919129
4.648,2.7362265208503231
4.652,2.4334581111615989
4.656,2.1989833277184516
4.66,2.5518337299872655
4.664,2.7765522811096162
4.668,2.5280935646733269
4.672,2.2256503627286293
4.676,2.5014265296631493
4.68,2.7866337211744394
4.684,2.6041921767755412
4.688,2.2685777849401347
4.692,2.456873068731511
4.696,2.8019184851436876
4.7,2.6890713979664724
4.704,2.3355705802096054
4.708,2.4126448155438993
4.712,2.7908614218467847
4.716,2.75541377774789
4.72,2.4035389987111557
4.724,2.3693921855883673
4.728,2.7619179326284211
4.732,2.8028941083757672
4.736,2.4711822094686795
4.74,2.3264647633768618
4.744,2.6988276302872691
4.748,2.8165528336248826
4.752,2.5063046458235476
4.756,2.2562198906671256
4.76,2.5775251417653635
4.764,2.7586658551881555
4.768,2.4806132340454496
4.772,2.1628852681315038
4.776,2.4321572801854927
4.78,2.7004536690074019
4.784,2.4841905192297418
4.788,2.1222343001281843
4.792,2.3020741825748701
4.796,2.6415910673385952
4.8,2.5011013219191227
4.804,2.1251611698244233
4.808,2.1983329122303985
4.812,2.5866309585981071
4.816,2.5280935646733269
4.82,2.1573567364830524
4.824,2.1222343001281843
4.828,2.5362237582739908
4.832,2.5739478565810714
4.836,2.2266259859607089
4.84,2.0832093708449975
4.844,2.4783367798372637
4.848,2.6012653070793021
4.852,2.2945944044622593
4.856,2.0636969062034041
4.86,2.4184985549363773
4.864,2.6194769407447893
4.868,2.356383875827305
4.872,2.0601196210191119
4.876,2.3495545132027473
4.88,2.6289079653215595
4.884,2.4272791640250944
4.888,2.0854858250531834
4.892,2.2848381721414626
4.896,2.6214281872089487
4.9,2.4832148959976621
4.904,2.1150797297596
4.908,2.2015849896706641
4.912,2.580126803717576
4.916,2.5264675259531941
4.92,2.169389423012035
4.924,2.1459744654421229
4.928,2.5411018744343892
4.932,2.5739478565810714
4.936,2.2370326337695587
4.94,2.1056487051828299
4.944,2.4929711283184588
4.948,2.6077694619598333
4.952,2.2968708586704452
4.956,2.0724775152921211
4.96,2.4357345653697848
4.964,2.6406154441065155
4.968,2.3814248721173499
4.972,2.0887379024934489
4.976,2.3859777805337217
4.98,2.6581766622839496
4.984,2.4383362273219973
4.988,2.0903639412135817
4.992,2.2952448199503124
4.996,2.6367129511781968
5,2.4887434276461136
5.004,2.1186570149438921
5.008,2.206788313575089
5.012,2.5954115676868241
5.016,2.5306952266255394
5.02,2.1573567364830524
5.024,2.1267872085445561
5.028,2.5398010434582829
5.032,2.563216001028195
5.036,2.2132924684556201
5.04,2.0780060469405726
5.044,2.4864669734379277
5.048,2.6041921767755412
5.052,2.2851633798854891
5.056,2.0601196210191119
5.06,2.4298808259773068
5.064,2.635086912458064
5.068,2.3661401081481017
5.072,2.074753969500307
5.076,2.3784980024211109
5.08,2.6640304016764276
5.084,2.4477672518987674
5.088,2.1027218354865909
5.092,2.318984985264251
5.096,2.6685833100927994
5.1,2.5261423182091676
5.104,2.1612592294113711
5.108,2.2731306933565065
5.112,2.6620791552122682
5.116,2.5898830360383727
5.12,2.2129672607115936
5.124,2.1921539650938939
5.128,2.5960619831748772
5.132,2.6162248633045238
5.136,2.2695534081722144
5.14,2.149551750626415
5.144,2.5482564448029734
5.148,2.6526481306354981
5.152,2.3316680872812867
5.156,2.1111772368312813
5.16,2.4718326249567326
5.164,2.6734614262531977
5.168,2.4058154529193416
5.172,2.1124780678073876
5.176,2.4126448155438993
5.18,2.6910226444306318
5.184,2.4786619875812903
5.188,2.1443484267219901
5.192,2.3667905236361548
5.196,2.7095594858401455
5.2,2.5524841454753187
5.204,2.1697146307560615
5.208,2.2627240455476567
5.212,2.6399650286184624
5.216,2.5687445326766465
5.22,2.1908531341177877
5.224,2.1719910849642474
5.228,2.5736226488370448
5.232,2.5954115676868241
5.236,2.2493905280425679
5.24,2.1267872085445561
5.244,2.5303700188815128
5.248,2.6373633666662499
5.252,2.3202858162403572
5.256,2.1059739129268564
5.26,2.4760603256290779
5.264,2.6672824791166931
5.268,2.382075287605403
5.272,2.0594692055310588
5.276,2.338822657649871
5.28,2.5989888528711163
5.284,2.4324824879295193
5.288,2.2201218310801778
5.292,2.580126803717576
5.296,3.0783450675662607
5.3,3.1485899402759969
5.304,2.9554165403242223
5.308,3.0783450675662607
5.312,3.2682663900777698
5.316,2.8373661292425822
5.32,2.1632104758755304
5.324,2.0614204519952182
5.328,2.476710741117131
5.332,2.5209389943047427
5.336,2.2093899755273014
5.34,2.1248359620803967
5.344,2.5479312370589469
5.348,2.6513472996593919
5.352,2.3261395556328353
5.356,2.1053234974388033
5.36,2.4760603256290779
5.364,2.6702093488129321
5.368,2.3931323509023059
5.372,2.1046730819507502
5.376,2.4181733471923508
5.38,2.6936243063828442
5.384,2.4734586636768654
5.388,2.1274376240326092
5.392,2.3528065906430129
5.396,2.6968763838231098
5.4,2.5547605996835046
5.404,2.1902027186297346
5.408,2.3004481438547373
5.412,2.6851689050381538
5.416,2.611671954888152
5.42,2.2464636583463289
5.424,2.2399595034657978
5.428,2.6396398208744358
5.432,2.6552497925877105
5.436,2.3137816613598261
5.44,2.2048370671109296
5.444,2.5993140606151428
5.448,2.7098846935841721
5.452,2.396709636086598
5.456,2.1849993947253097
5.46,2.5424027054104954
5.464,2.7381777673144825
5.468,2.4799628185573965
5.472,2.2106908065034077
5.476,2.5131340084481053
5.48,2.7850076824543066
5.484,2.5736226488370448
5.488,2.2454880351142492
5.492,2.4682553397724405
5.496,2.8002924464235548
5.5,2.6581766622839496
5.504,2.3069522987352684
5.508,2.4263035407930147
5.512,2.8022436928877141
5.516,2.7378525595704559
5.52,2.3866281960217748
5.524,2.3863029882777482
5.528,2.7713489572051913
5.532,2.7791539430618286
5.536,2.428254787257174
5.54,2.3092287529434543
5.544,2.6793151656456757
5.548,2.7472835841472261
5.552,2.4064658684073947
5.556,2.18402377149323
5.56,2.5368741737620439
5.564,2.698177214799216
5.568,2.4058154529193416
5.572,2.1115024445753079
5.576,2.4145960620080587
5.58,2.6591522855160292
5.584,2.4204498014005367
5.588,2.0724775152921211
5.592,2.293293573486153
5.596,2.6142736168403644
5.6,2.4532957835472189
5.604,2.0867866560292896
5.608,2.2093899755273014
5.612,2.5885822050622664
5.616,2.5092315155197866
5.62,2.1430475957458839
5.624,2.158332359715132
5.628,2.5713461946288589
5.632,2.5684193249326199
5.636,2.2116664297354873
5.64,2.1108520290872548
5.644,2.5235406562569551
5.648,2.626306303369347
5.652,2.3092287529434543
5.656,2.1157301452476531
5.66,2.4919955050863791
5.664,2.663705193932401
5.668,2.3739450940047391
5.672,2.0900387334695552
5.676,2.4110187768237665
5.68,2.6741118417412508
5.684,2.4402874737861566
5.688,2.1007705890224315
5.692,2.3375218266737647
5.696,2.6682581023487728
5.7,2.5059794380795211
5.704,2.1397955183056183
5.708,2.2708542391483206
5.712,2.6545993770996574
5.716,2.5648420397483278
5.72,2.1885766799096018
5.724,2.2012597819266375
5.728,2.6077694619598333
5.732,2.6071190464717802
5.736,2.2506913590186741
5.74,2.1440232189779636
5.744,2.5443539518746547
5.748,2.620452563976869
5.752,2.2975212741584983
5.756,2.1053234974388033
5.76,2.4780115720932372
5.764,2.6451683525228873
5.768,2.3573594990593847
5.772,2.0828841631009709
5.776,2.4025633754790761
5.78,2.6591522855160292
5.784,2.4302060337213334
5.788,2.0949168496299535
5.792,2.3326437105133664
5.796,2.6601279087481089
5.8,2.4981744522228837
5.804,2.1345921944011934
5.808,2.2695534081722144
5.812,2.6441927292908076
5.816,2.5528093532193452
5.82,2.1797960708208848
5.824,2.1976824967423454
5.828,2.5921594902465586
5.832,2.5843545043899212
5.836,2.2321545176091604
5.84,2.1404459337936714
5.844,2.5326464730896987
5.848,2.611671954888152
5.852,2.290366703789914
5.856,2.1082503671350423
5.86,2.4799628185573965
5.864,2.6484204299631529
5.868,2.3661401081481017
5.872,2.0955672651180066
5.876,2.4181733471923508
5.88,2.6783395424135961
5.884,2.445165589946555
5.888,2.1141041065275203
5.892,2.3602863687556237
5.896,2.6897218134545255
5.9,2.5193129555846099
5.904,2.1550802822748665
5.908,2.2984968973905779
5.912,2.6780143346695695
5.916,2.577199934021337
5.92,2.2041866516228765
5.924,2.235406595049426
5.928,2.6493960531952325
5.932,2.6308592117857188
5.936,2.2692282004281878
5.94,2.1807716940529644
5.944,2.5986636451270897
5.948,2.6728110107651446
5.952,2.3381722421618178
5.956,2.1505273738584947
5.96,2.5401262512023095
5.964,2.7014292922394816
5.968,2.4058154529193416
5.972,2.1339417789131403
5.976,2.4584991074516438
5.98,2.7066326161439065
5.984,2.4711822094686795
5.988,2.1472752964182291
5.992,2.4009373367589433
5.996,2.7381777673144825
6,2.5739478565810714
6.004,2.20386144387885
6.008,2.3293916330731008
6.012,2.6913478521746583
6.016,2.5863057508540805
6.02,2.2129672607115936
6.024,2.2328049330972135
6.028,2.6324852505058516
6.032,2.6084198774478864
6.036,2.2458132428582758
6.04,2.1576819442270789
6.044,2.5719966101169121
6.048,2.6425666905706748
6.052,2.3108547916635871
6.056,2.1258115853124764
6.06,2.5076054767996538
6.064,2.6672824791166931
6.068,2.3807744566292968
6.072,2.109225990367122
6.076,2.4080919071275275
6.08,2.6194769407447893
6.084,2.3771971714450046
6.088,2.1271124162885826
6.092,2.491345089598326
6.096,2.9648475649009924
6.1,3.0090758180886041
6.104,2.8461467383312993
6.108,3.0754181978700217
6.112,3.436073585995473
6.116,3.2022492180403788
6.12,2.4939467515505385
6.124,2.2767079785407986
6.128,2.6061434232397005
6.132,2.5869561663421337
6.136,2.2545938519469928
6.14,2.2022354051587172
6.144,2.6211029794649221
6.148,2.6871201515023131
6.152,2.3511805519228801
6.156,2.1687390075239819
6.16,2.5528093532193452
6.164,2.7085838626080658
6.168,2.4149212697520852
6.172,2.1518282048346009
6.176,2.4822392727655824
6.18,2.7280963272496592
6.184,2.4877678044140339
6.188,2.1645113068516366
6.192,2.4201245936565101
6.196,2.7424054679868277
6.2,2.5716714023728855
6.204,2.2136176761996467
6.208,2.3654896926600486
6.212,2.7378525595704559
6.216,2.6383389898983296
6.22,2.2685777849401347
6.224,2.307277506479295
6.228,2.718014887184836
6.232,2.7007788767514285
6.236,2.3498797209467739
6.24,2.2776836017728783
6.244,2.68646973601426
6.248,2.7505356615874916
6.252,2.4191489704244304
6.256,2.2458132428582758
6.26,2.6341112892259844
6.264,2.7911866295908112
6.268,2.5092315155197866
6.272,2.2549190596910194
6.276,2.5843545043899212
6.28,2.8201301188091747
6.284,2.5967123986629304
6.288,2.287439834093675
6.292,2.5339473040658049
6.296,2.8370409214985557
6.3,2.6715101797890384
6.304,2.3267899711208884
6.308,2.4770359488611575
6.312,2.8363905060105026
6.316,2.7459827531711198
6.32,2.3885794424859341
6.324,2.4220758401206695
6.328,2.8067966013040859
6.332,2.7872841366624925
6.336,2.4318320724414662
6.34,2.3515057596669067
6.344,2.7359013131062966
6.348,2.784032059222227
6.352,2.4383362273219973
6.356,2.2458132428582758
6.36,2.6028913457994349
6.364,2.7342752743861638
6.368,2.4250027098169085
6.372,2.1502021661144681
6.376,2.4529705758031923
6.38,2.6633799861883745
6.384,2.4123196077998728
6.388,2.0945916418859269
6.392,2.3375218266737647
6.396,2.6357373279461171
6.4,2.4552470300113782
6.404,2.1001201735343784
6.408,2.2552442674350459
6.412,2.6178509020246565
6.416,2.5024021528952289
6.42,2.1303644937288482
6.424,2.1817473172850441
6.428,2.5892326205503196
6.432,2.5641916242602747
6.436,2.2051622748549562
6.44,2.1449988422100432
6.444,2.5609395468200091
6.448,2.6168752787925769
6.452,2.2770331862848252
6.456,2.1079251593910158
6.46,2.4975240367348306
6.464,2.638013782154303
6.468,2.3469528512505349
6.472,2.1001201735343784
6.476,2.4419135125062894
6.48,2.6663068558846135
6.484,2.4188237626804039
6.488,2.1020714199985377
6.492,2.3710182243085001
6.496,2.6754126727173571
6.5,2.4851661424618214
6.504,2.1293888704967685
6.508,2.2994725206226576
6.512,2.663705193932401
6.516,2.5459799905947875
6.52,2.1739423314284068
6.524,2.2276016091927886
6.528,2.6311844195297454
6.532,2.5921594902465586
6.536,2.2266259859607089
6.54,2.1648365145956632
6.544,2.5824032579257619
6.548,2.6334608737379313
6.552,2.2958952354383655
6.556,2.1339417789131403
6.56,2.5300448111374862
6.564,2.6750874649733305
6.568,2.373294678516686
6.572,2.1150797297596
6.576,2.4532957835472189
6.58,2.6744370494852774
6.584,2.4233766710967757
6.588,2.1131284832954407
6.592,2.3788232101651374
6.596,2.6763882959494367
6.6,2.4890686353901401
6.604,2.1339417789131403
6.608,2.2919927425100468
6.612,2.6373633666662499
6.616,2.522890240768902
6.62,2.1632104758755304
6.624,2.2188210001040716
6.628,2.6119971626321785
6.632,2.5765495185332838
6.636,2.218495792360045
6.64,2.1651617223396897
6.644,2.5749234798131511
6.648,2.6246802646492142
6.652,2.2864642108615953
6.656,2.1245107543363702
6.66,2.5121583852160256
6.664,2.6458187680109404
6.668,2.3508553441788536
6.672,2.112152860063361
6.676,2.4581738997076172
6.68,2.6705345565569587
6.684,2.4188237626804039
6.688,2.1089007826230954
6.692,2.3840265340695623
6.696,2.6793151656456757
6.7,2.4955727902706712
6.704,2.1472752964182291
6.708,2.3176841542881448
6.712,2.6669572713726666
6.716,2.5472808215708937
6.72,2.1895523031416815
6.724,2.2604475913394708
6.728,2.6598027010040823
6.732,2.6119971626321785
6.736,2.2516669822507538
6.74,2.2071135213191155
6.744,2.6266315111133736
6.748,2.6721605952770915
6.752,2.3290664253290743
6.756,2.1742675391724333
6.76,2.5749234798131511
6.764,2.7082586548640393
6.768,2.4041894141992088
6.772,2.1619096448994242
6.776,2.5089063077757601
6.78,2.7280963272496592
6.784,2.4715074172127061
6.788,2.1632104758755304
6.792,2.4461412131786346
6.796,2.7433810912189074
6.8,2.5521589377312921
6.804,2.1963816657662392
6.808,2.3710182243085001
6.812,2.7196409259049688
6.816,2.5911838670144789
6.82,2.2197966233361512
6.824,2.2825617179332767
6.828,2.6646808171644807
6.832,2.6194769407447893
6.836,2.2607727990834974
6.84,2.2129672607115936
6.844,2.6074442542158067
6.848,2.6467943912430201
6.852,2.3118304148956668
6.856,2.1589827752031852
6.86,2.5407766666903626
6.864,2.6679328946047463
6.868,2.3739450940047391
6.872,2.1469500886742026
6.876,2.500125698687043
6.88,2.7228930033452343
6.884,2.4682553397724405
6.888,2.155405490018893
6.892,2.4158968929841649
6.896,2.6910226444306318
6.9,2.4835401037416887
6.904,2.1274376240326092
6.908,2.3082531297113746
6.912,2.6562254158197902
6.916,2.5267927336972207
6.92,2.1628852681315038
6.924,2.2337805563292932
6.928,2.6211029794649221
6.932,2.5723218178609386
6.936,2.2145932994317263
6.94,2.1732919159403536
6.944,2.5778503495093901
6.948,2.6155744478164706
6.952,2.2604475913394708
6.956,2.086461448285263
6.96,2.4663040933082812
6.964,2.6028913457994349
6.968,2.3810996643733233
6.972,2.2910171192779671
6.976,2.7804547740379348
6.98,3.1752569752861746
6.984,3.137532876979094
6.988,2.9788314978941344
6.992,3.1895661160233431
6.996,3.2237129291461315
7,2.6627295707003213
7.004,2.071827099804068
7.008,2.1983329122303985
7.012,2.5502076912671328
7.016,2.4474420441547409
7.02,2.1228847156162374
7.024,2.2298780634009745
7.028,2.6276071343454532
7.032,2.5794763882295229
7.036,2.2149185071757529
7.04,2.1745927469164599
7.044,2.5762243107892573
7.048,2.6058182154956739
7.052,2.2640248765237629
7.056,2.123860338848317
7.06,2.5225650330248754
7.064,2.6497212609392591
7.068,2.3502049286908004
7.072,2.1173561839677859
7.076,2.4637024313560687
7.08,2.6692337255808525
7.084,2.404839829687262
7.088,2.0991445503022987
7.092,2.3797988333972171
7.096,2.6715101797890384
7.1,2.4806132340454496
7.104,2.1427223880018573
7.108,2.3339445414894726
7.112,2.6773639191815164
7.116,2.5420774976664688
7.12,2.1755683701485395
7.124,2.2575207216432318
7.128,2.6559002080757637
7.132,2.6041921767755412
7.136,2.2490653202985413
7.14,2.2263007782166824
7.144,2.6487456377071794
7.148,2.6906974366866052
7.152,2.3609367842436768
7.156,2.2315041021211073
7.16,2.6305340040416922
7.164,2.7625683481164742
7.168,2.4744342869089451
7.172,2.2549190596910194
7.176,2.600614891591249
7.18,2.815577210392803
7.184,2.5758991030452307
7.188,2.2913423270219937
7.192,2.5628907932841685
7.196,2.8461467383312993
7.2,2.6581766622839496
7.204,2.324838724656729
7.208,2.5063046458235476
7.212,2.8438702841231134
7.216,2.7202913413930219
7.22,2.359310745523544
7.224,2.4328076956735458
7.228,2.7853328901983332
7.232,2.7144376020005438
7.236,2.3410991118580569
7.24,2.2926431579980999
7.244,2.6594774932600558
7.248,2.6708597643009853
7.252,2.3267899711208884
7.256,2.1807716940529644
7.26,2.5414270821784157
7.264,2.6393146131304093
7.268,2.3293916330731008
7.272,2.1059739129268564
7.276,2.4523201603151392
7.28,2.6545993770996574
7.284,2.3915063121821731
7.288,2.0939412263978738
7.292,2.3781727946770843
7.296,2.6646808171644807
7.3,2.45979993842775
7.304,2.1176813917118125
7.308,2.316058115568012
7.312,2.6568758313078433
7.316,2.5183373323525302
7.32,2.1606088139233179
7.324,2.2623988378036302
7.328,2.6562254158197902
7.332,2.5944359444547445
7.336,2.2289024401688948
7.34,2.2032110283907969
7.344,2.6110215394000988
7.348,2.6354121202020906
7.352,2.2916675347660203
7.356,2.1580071519711055
7.36,2.5586630926118232
7.364,2.6702093488129321
7.368,2.356383875827305
7.372,2.1316653247049544
7.376,2.491345089598326
7.38,2.698177214799216
7.384,2.4354093576257583
7.388,2.1381694795854855
7.392,2.4188237626804039
7.396,2.6900470211985521
7.4,2.4806132340454496
7.404,2.1404459337936714
7.408,2.3433755660662428
7.412,2.6913478521746583
7.416,2.5534597687073983
7.42,2.1934547960700002
7.424,2.2861390031175688
7.428,2.6747622572293039
7.432,2.6100459161680192
7.436,2.2506913590186741
7.44,2.2328049330972135
7.444,2.6438675215467811
7.448,2.663705193932401
7.452,2.3235378936806228
7.456,2.2045118593669031
7.46,2.5954115676868241
7.464,2.698177214799216
7.468,2.3853273650456686
7.472,2.1589827752031852
7.476,2.4965484135027509
7.48,2.6793151656456757
7.484,2.4142708542640321
7.488,2.1183318071998656
7.492,2.3941079741343856
7.496,2.6653312326525338
7.5,2.456873068731511
7.504,2.1128032755514141
7.508,2.3020741825748701
7.512,2.6367129511781968
7.516,2.4955727902706712
7.52,2.1352426098892465
7.524,2.238333464745665
7.528,2.6256558878812939
7.532,2.5615899623080622
7.536,2.1980077044863719
7.54,2.1863002257014159
7.544,2.5928099057346117
7.548,2.6168752787925769
7.552,2.2747567320766393
7.556,2.1518282048346009
7.56,2.5411018744343892
7.564,2.6503716764273122
7.568,2.3420747350901365
7.572,2.123860338848317
7.576,2.4763855333731044
7.58,2.6767135036934633
7.584,2.4132952310319524
7.588,2.1254863775684498
7.592,2.4162221007281914
7.596,2.6903722289425787
7.6,2.482564480509609
7.604,2.1433728034899104
7.608,2.350530136434827
7.612,2.6913478521746583
7.616,2.5463051983388141
7.62,2.1843489792372566
7.624,2.2822365101892501
7.628,2.6643556094204541
7.632,2.5931351134786382
7.636,2.2285772324248683
7.64,2.221422662056284
7.644,2.6383389898983296
7.648,2.6581766622839496
7.652,2.3118304148956668
7.656,2.1866254334454425
7.66,2.585980543110054
7.664,2.6851689050381538
7.668,2.3716686397965532
7.672,2.1602836061792914
7.676,2.5251666949770879
7.68,2.7157384329766501
7.684,2.4428891357383691
7.688,2.1482509196503088
7.692,2.4380110195779707
7.696,2.7082586548640393
7.7,2.4994752831989899
7.704,2.166462553315796
7.708,2.3752459249808453
7.712,2.718014887184836
7.716,2.5729722333489917
7.72,2.2129672607115936
7.724,2.3150824923359323
7.728,2.704030954191694
7.732,2.6354121202020906
7.736,2.2744315243326128
7.74,2.2711794468923472
7.744,2.6793151656456757
7.748,2.6988276302872691
7.752,2.3654896926600486
7.756,2.2497157357865945
7.76,2.6289079653215595
7.764,2.7137871865124907
7.768,2.3954088051104918
7.772,2.1784952398447786
7.776,2.5150852549122646
7.78,2.6939495141268708
7.784,2.4321572801854927
7.788,2.1547550745308399
7.792,2.4357345653697848
7.796,2.6988276302872691
7.8,2.4893938431341667
7.804,2.1573567364830524
7.808,2.353457006131066
7.812,2.6825672430859413
7.816,2.5433783286425751
7.82,2.1918287573498674
7.824,2.2809356792131439
7.828,2.6370381589222234
7.832,2.525817110465141
7.836,2.1423971802578308
7.84,2.1638608913635835
7.844,2.6676076868607197
7.848,2.8383417524746619
7.852,2.689396605710499
7.856,2.7427306757308543
7.86,3.2188348129857332
7.864,3.4068048890330829
7.868,3.0490763706038706
7.872,2.5342725118098315
7.876,2.5654924552363809
7.88,2.583053673413815
7.884,2.2776836017728783
7.888,2.0071107587427832
7.892,2.3404486963700037
7.896,2.6438675215467811
7.9,2.453946199035272
7.904,2.1290636627527419
7.908,2.3463024357624818
7.912,2.6737866339972243
7.916,2.5193129555846099
7.92,2.158332359715132
7.924,2.2724802778684534
7.928,2.6620791552122682
7.932,2.5902082437823992
7.936,2.2266259859607089
7.94,2.2246747394965496
7.944,2.6334608737379313
7.948,2.6448431447788607
7.952,2.3040254290390294
7.956,2.1967068735102657
7.96,2.5950863599427976
7.964,2.6838680740620475
7.968,2.3661401081481017
7.972,2.1599583984352648
7.976,2.5245162794890348
7.98,2.715088017488597
7.984,2.4500437061069533
7.988,2.1703650462441146
7.992,2.4653284700762015
7.996,2.7293971582257655
8,2.5189877478405833
8.004,2.1905279263737611
8.008,2.3970348438306246
8.012,2.7274459117616061
8.016,2.5879317895742133
8.02,2.2419107499299571
8.024,2.3518309674109332
8.028,2.7303727814578451
8.032,2.6604531164921355
8.036,2.3118304148956668
8.04,2.3111799994076136
8.044,2.7128115632804111
8.048,2.7232182110892609
8.052,2.3863029882777482
8.056,2.2783340172609314
8.06,2.6750874649733305
8.064,2.7801295662939083
8.068,2.485491350205848
8.072,2.2897162883018609
8.076,2.6341112892259844
8.08,2.8064713935600594
8.084,2.5420774976664688
8.088,2.2643500842677895
8.092,2.5388254202262033
8.096,2.7791539430618286
8.1,2.5583378848677967
8.104,2.215568922663806
8.108,2.4041894141992088
8.112,2.7085838626080658
8.116,2.5476060293149203
8.12,2.1758935778925661
8.124,2.2705290314042941
8.128,2.6243550569051877
8.132,2.5271179414412472
8.136,2.155405490018893
8.14,2.1544298667868134
8.144,2.5492320680350531
8.148,2.5371993815060705
8.152,2.1859750179573894
8.156,2.0780060469405726
8.16,2.4747594946529716
8.164,2.5534597687073983
8.168,2.2344309718173463
8.172,2.0357290402171202
8.176,2.4041894141992088
8.18,2.5843545043899212
8.184,2.3183345697761979
8.188,2.0516642196744215
8.192,2.3596359532675706
8.196,2.6214281872089487
8.2,2.4006121290149167
8.204,2.0770304237084929
8.208,2.3076027142233215
8.212,2.6406154441065155
8.216,2.4809384417894762
8.22,2.1251611698244233
8.224,2.2474392815784086
8.228,2.6315096272737719
8.232,2.5492320680350531
8.236,2.1863002257014159
8.24,2.1954060425341595
8.244,2.6087450851919129
8.248,2.6084198774478864
8.252,2.2549190596910194
8.256,2.1505273738584947
8.26,2.5593135080998763
8.264,2.6422414828266483
8.268,2.3199606084963307
8.272,2.1222343001281843
8.276,2.4998004909430165
8.28,2.6702093488129321
8.284,2.3915063121821731
8.288,2.1150797297596
8.292,2.4321572801854927
8.296,2.6887461902224459
8.3,2.465653677820228
8.304,2.1417467647697777
8.308,2.3632132384518627
8.312,2.6789899579016492
8.316,2.5189877478405833
8.32,2.1684137997799553
8.324,2.2910171192779671
8.328,2.6646808171644807
8.332,2.5723218178609386
8.336,2.2090647677832749
8.34,2.2188210001040716
8.344,2.620452563976869
8.348,2.6198021484888159
8.352,2.2750819398206659
8.356,2.1784952398447786
8.36,2.5768747262773104
8.364,2.6562254158197902
8.368,2.3381722421618178
8.372,2.1508525816025212
8.376,2.5150852549122646
8.38,2.6731362185091712
8.384,2.3960592205985449
8.388,2.1287384550087154
8.392,2.4324824879295193
8.396,2.6783395424135961
8.4,2.4581738997076172
8.404,2.1371938563534059
8.408,2.3599611610115971
8.412,2.6708597643009853
8.416,2.5076054767996538
8.42,2.1544298667868134
8.424,2.2877650418377016
8.428,2.6640304016764276
8.432,2.5794763882295229
8.436,2.2210974543122575
8.44,2.2399595034657978
8.444,2.6428918983147014
8.448,2.6311844195297454
8.452,2.2770331862848252
8.456,2.1843489792372566
8.46,2.5876065818301868
8.464,2.6624043629562948
8.468,2.3378470344177913
8.472,2.1482509196503088
8.476,2.5280935646733269
8.48,2.695250345102977
8.484,2.4116691923118196
8.488,2.1345921944011934
8.492,2.4464664209226612
8.496,2.6968763838231098
8.5,2.4692309630045202
8.504,2.1459744654421229
8.508,2.3804492488852702
8.512,2.698177214799216
8.516,2.5303700188815128
8.52,2.1739423314284068
8.524,2.3040254290390294
8.528,2.6747622572293039
8.532,2.577199934021337
8.536,2.2145932994317263
8.54,2.2292276479129214
8.544,2.6334608737379313
8.548,2.6220786026970018
8.552,2.2750819398206659
8.556,2.1791456553328317
8.56,2.5856553353660274
8.564,2.6562254158197902
8.568,2.3339445414894726
8.572,2.1602836061792914
8.576,2.5502076912671328
8.58,2.7157384329766501
8.584,2.4344337343936786
8.588,2.1651617223396897
8.592,2.4724830404447857
8.596,2.6985024225432426
8.6,2.4549218222673517
8.604,2.1293888704967685
8.608,2.3680913546122611
8.612,2.6802907888777554
8.616,2.5167112936323974
8.62,2.1645113068516366
8.624,2.2936187812301796
8.628,2.6529733383795246
8.632,2.5593135080998763
8.636,2.2048370671109296
8.64,2.232479725353187
8.644,2.6289079653215595
8.648,2.611671954888152
8.652,2.2422359576739836
8.656,2.1290636627527419
8.66,2.5173617091204505
8.664,2.6198021484888159
8.668,2.4015877522469964
8.672,2.3697173933323938
8.676,2.8776918895018753
8.68,3.2191600207297597
8.684,3.1388337079552002
8.688,2.9794819133821875
8.692,3.1729805210779887
8.696,3.1154187503852881
8.7,2.5596387158439029
8.704,2.077680839196546
8.708,2.2812608869571704
8.712,2.5957367754308507
8.716,2.4529705758031923
8.72,2.1427223880018573
8.724,2.3059766755031887
8.728,2.6822420353419147
8.732,2.5866309585981071
8.736,2.2204470388242044
8.74,2.2454880351142492
8.744,2.6438675215467811
8.748,2.626306303369347
8.752,2.2731306933565065
8.756,2.1924791728379205
8.76,2.5989888528711163
8.764,2.6659816481405869
8.768,2.3420747350901365
8.772,2.1658121378277428
8.776,2.5489068602910265
8.78,2.6978520070551895
8.784,2.4132952310319524
8.788,2.1645113068516366
8.792,2.4919955050863791
8.796,2.718014887184836
8.8,2.4812636495335028
8.804,2.1651617223396897
8.808,2.4191489704244304
8.812,2.7303727814578451
8.816,2.5628907932841685
8.82,2.2204470388242044
8.824,2.3706930165644735
8.828,2.7365517285943497
8.832,2.6409406518505421
8.836,2.2877650418377016
8.84,2.3209362317284103
8.844,2.7131367710244376
8.848,2.698177214799216
8.852,2.3524813828989863
8.856,2.2763827707967721
8.86,2.68646973601426
8.864,2.7661456333007663
8.868,2.4571982764755376
8.872,2.281586094701197
8.876,2.6477700144750997
8.88,2.8002924464235548
8.884,2.5329716808337253
8.888,2.293293573486153
8.892,2.6129727858642582
8.896,2.8399677911947947
8.9,2.6103711239120457
8.904,2.3007733515987638
8.908,2.531670849857619
8.912,2.8198049110651482
8.916,2.6552497925877105
8.92,2.3092287529434543
8.924,2.4285799950012006
8.928,2.7541129467717838
8.932,2.6451683525228873
8.936,2.2763827707967721
8.94,2.2906919115339406
8.944,2.651997715147445
8.948,2.6158996555604972
8.952,2.2549190596910194
8.956,2.1648365145956632
8.96,2.545654782850761
8.964,2.5944359444547445
8.968,2.2614232145715505
8.972,2.0910143567016348
8.976,2.4689057552604936
8.98,2.6149240323284175
8.984,2.3215866472164635
8.988,2.0715018920600414
8.992,2.4002869212708902
8.996,2.6214281872089487
9,2.379148417909164
9.004,2.0679246068757493
9.008,2.3241883091686759
9.012,2.6250054723932408
9.016,2.445165589946555
9.02,2.1030470432306174
9.024,2.2708542391483206
9.028,2.6324852505058516
9.032,2.5212642020487692
9.036,2.1550802822748665
9.04,2.2022354051587172
9.044,2.6048425922635943
9.048,2.5745982720691245
9.052,2.2217478698003106
9.056,2.1550802822748665
9.06,2.5645168320043012
9.064,2.61752569428063
9.068,2.290366703789914
9.072,2.1261367930565029
9.076,2.5163860858883709
9.08,2.6585018700279761
9.084,2.3602863687556237
9.088,2.106299120670883
9.092,2.4448403822025284
9.096,2.6763882959494367
9.1,2.4289052027452271
9.104,2.1095511981111486
9.108,2.3635384461958893
9.112,2.6633799861883745
9.116,2.4841905192297418
9.12,2.1352426098892465
9.124,2.2968708586704452
9.128,2.6526481306354981
9.132,2.5388254202262033
9.136,2.1729667081963271
9.14,2.2204470388242044
9.144,2.6080946697038598
9.148,2.5791511804854963
9.152,2.2328049330972135
9.156,2.175243162404513
9.16,2.5645168320043012
9.164,2.6201273562328424
9.168,2.2991473128786311
9.172,2.1365434408653527
9.176,2.5037029838713352
9.18,2.6422414828266483
9.184,2.3524813828989863
9.188,2.1131284832954407
9.192,2.4445151744585019
9.196,2.6721605952770915
9.2,2.4289052027452271
9.204,2.1202830536640249
9.208,2.3755711327248719
9.212,2.6650060249085072
9.216,2.482564480509609
9.22,2.1420719725138042
9.224,2.3085783374554012
9.228,2.6611035319801886
9.232,2.551508522243239
9.236,2.1973572889983188
9.24,2.2503661512746476
9.244,2.6373633666662499
9.248,2.6015905148233287
9.252,2.247114073834382
9.256,2.1866254334454425
9.26,2.5898830360383727
9.264,2.6441927292908076
9.268,2.3154077000799589
9.272,2.1567063209949993
9.276,2.5414270821784157
9.28,2.677689126925543
9.284,2.3840265340695623
9.288,2.1443484267219901
9.292,2.485491350205848
9.296,2.7017544999835081
9.3,2.4604503539158031
9.304,2.158332359715132
9.308,2.4233766710967757
9.312,2.7141123942565173
9.316,2.5193129555846099
9.32,2.1758935778925661
9.324,2.3508553441788536
9.328,2.7024049154715613
9.332,2.5752486875571776
9.336,2.2136176761996467
9.34,2.2822365101892501
9.344,2.6698841410689056
9.348,2.632160042761825
9.352,2.2936187812301796
9.356,2.258821552619338
9.36,2.6624043629562948
9.364,2.7059822006558534
9.368,2.3700426010764204
9.372,2.2048370671109296
9.376,2.5719966101169121
9.38,2.6858193205262069
9.384,2.3833761185815092
9.388,2.1472752964182291
9.392,2.4783367798372637
9.396,2.6916730599186849
9.4,2.4435395512264222
9.404,2.1417467647697777
9.408,2.3983356748067308
9.412,2.6975267993111629
9.416,2.5092315155197866
9.42,2.1658121378277428
9.424,2.3284160098410212
9.428,2.6780143346695695
9.432,2.5547605996835046
9.436,2.1791456553328317
9.44,2.2171949613839388
9.444,2.6048425922635943
9.448,2.6217533949529752
9.452,2.4087423226155806
9.456,2.514109631680185
9.46,3.0373688918189146
9.464,3.2744453372142743
9.468,3.1307035143545363
9.472,3.0077749871124979
9.476,3.1537932641804218
9.48,2.8994808083516546
9.484,2.2988221051346045
9.488,1.9563783506746404
9.492,2.2978464819025248
9.496,2.5437035363866016
9.5,2.3443511892983224
9.504,2.0997949657903519
9.508,2.4002869212708902
9.512,2.7072830316319596
9.516,2.5300448111374862
9.52,2.1915035496058408
9.524,2.3697173933323938
9.528,2.7215921723691281
9.532,2.6022409303113818
9.536,2.2493905280425679
9.54,2.313131245871773
9.544,2.6906974366866052
9.548,2.6393146131304093
9.552,2.2887406650697812
9.556,2.255894682923099
9.56,2.6523229228914715
9.564,2.6978520070551895
9.568,2.3830509108374827
9.572,2.2415855421859305
9.576,2.6136232013523113
9.58,2.7346004821301904
9.584,2.451019329339033
9.588,2.2266259859607089
9.592,2.5570370538916904
9.596,2.7648448023246601
9.6,2.5251666949770879
9.604,2.241260334441904
9.608,2.5147600471682381
9.612,2.7960647457512096
9.616,2.6106963316560723
9.62,2.2835373411653563
9.624,2.4620763926359359
9.628,2.8009428619116079
9.632,2.6819168275978882
9.636,2.3384974499058444
9.64,2.4152464774961118
9.644,2.7976907844713423
9.648,2.7593162706762087
9.652,2.428254787257174
9.656,2.3921567276702262
9.66,2.7843572669662535
9.664,2.8285855201538652
9.668,2.5157356704003178
9.672,2.3768719637009781
9.676,2.7407794292666949
9.68,2.8624071255326271
9.684,2.5814276346936822
9.688,2.3596359532675706
9.692,2.6640304016764276
9.696,2.8594802558363881
9.7,2.6152492400724441
9.704,2.3134564536157995
9.708,2.5368741737620439
9.712,2.7889101753826253
9.716,2.5876065818301868
9.72,2.247114073834382
9.724,2.4028885832231026
9.728,2.7300475737138186
9.732,2.5944359444547445
9.736,2.2318293098651338
9.74,2.2890658728138078
9.744,2.6454935602669138
9.748,2.5833788811578415
9.752,2.2298780634009745
9.756,2.1954060425341595
9.76,2.5820780501817353
9.764,2.6054930077516474
9.768,2.2747567320766393
9.772,2.137844271841459
9.776,2.5121583852160256
9.78,2.6194769407447893
9.784,2.3215866472164635
9.788,2.1020714199985377
9.792,2.428254787257174
9.796,2.6207777717208955
9.8,2.373294678516686
9.804,2.0958924728620332
9.808,2.3710182243085001
9.812,2.6448431447788607
9.816,2.4562226532434579
9.82,2.1228847156162374
9.824,2.3033750135509763
9.828,2.6367129511781968
9.832,2.5102071387518663
9.836,2.155405490018893
9.84,2.2360570105374791
9.844,2.6191517330007628
9.848,2.563216001028195
9.852,2.2191462078480981
9.856,2.1983329122303985
9.86,2.5980132296390366
9.864,2.6191517330007628
9.868,2.287439834093675
9.872,2.1567063209949993
9.876,2.5472808215708937
9.88,2.6529733383795246
9.884,2.3518309674109332
9.888,2.1332913634250872
9.892,2.4809384417894762
9.896,2.6786647501576226
9.9,2.425327917560935
9.904,2.1365434408653527
9.908,2.4067910761514213
9.912,2.6711849720450118
9.916,2.4692309630045202
9.92,2.1384946873295121
9.924,2.3245135169127025
9.928,2.6604531164921355
9.932,2.52874398016138
9.936,2.1729667081963271
9.94,2.2454880351142492
9.944,2.6272819266014267
9.948,2.5667932862124871
9.952,2.2201218310801778
9.956,2.2032110283907969
9.96,2.6041921767755412
9.964,2.6227290181850549
9.968,2.2841877566534095
9.972,2.1508525816025212
9.976,2.5378497969941236
9.98,2.6454935602669138
9.984,2.3437007738102693
9.988,2.1280880395206623
9.992,2.4718326249567326
9.996,2.6526481306354981
10,2.3980104670627043
10.004,2.1163805607357062
10.008,2.3895550657180138
10.012,2.651997715147445
10.016,2.4555722377554048
10.02,2.1300392859848216
10.024,2.3144320768478792
10.028,2.6402902363624889
10.032,2.5066298535675742
10.036,2.1622348526434507
10.04,2.2575207216432318
10.044,2.6324852505058516
10.048,2.5752486875571776
10.052,2.2311788943770807
10.056,2.2084143522952218
10.06,2.6074442542158067
10.064,2.6376885744102765
10.068,2.3063018832472153
10.072,2.1778448243567254
10.076,2.5557362229155842
10.08,2.6617539474682417
10.084,2.3710182243085001
10.088,2.1713406694761943
10.092,2.5215894097927958
10.096,2.6985024225432426
10.1,2.4347589421377052
10.104,2.1362182331213262
10.108,2.4019129599910229
10.112,2.6581766622839496
10.116,2.4503689138509799
10.12,2.1287384550087154
10.124,2.335895787953632
10.128,2.6659816481405869
10.132,2.5209389943047427
10.136,2.1697146307560615
10.14,2.2711794468923472
10.144,2.6467943912430201
10.148,2.5687445326766465
10.152,2.2162193381518591
10.156,2.2054874825989828
10.16,2.6002896838472225
10.164,2.6054930077516474
10.168,2.2474392815784086
10.172,2.1098764058551751
10.176,2.5108575542399194
10.18,2.6854941127821803
10.184,2.5332968885777518
10.188,2.4965484135027509
10.192,2.9619206952047534
10.196,3.3050148651527707
10.2,3.2136314890813082
10.204,2.9375301144027617
10.208,2.9388309453788679
10.212,2.786958928918466
10.216,2.3082531297113746
10.22,1.9085728123027366
10.224,2.1388198950735386
10.228,2.5063046458235476
10.232,2.4009373367589433
10.236,2.0981689270702191
10.24,2.2380082570016384
10.244,2.6328104582498781
10.248,2.5677689094445668
10.252,2.2116664297354873
10.256,2.2012597819266375
10.26,2.5996392683591694
10.264,2.6113467471441254
10.268,2.2679273694520816
10.272,2.1508525816025212
10.276,2.5521589377312921
10.28,2.6529733383795246
10.284,2.3453268125304021
10.288,2.1365434408653527
10.292,2.4981744522228837
10.296,2.6851689050381538
10.3,2.425327917560935
10.304,2.1485761273943353
10.308,2.4419135125062894
10.312,2.7167140562087297
10.316,2.5131340084481053
10.32,2.1768692011246458
10.324,2.3687417701003142
10.328,2.6945999296149239
10.332,2.5554110151715577
10.336,2.206788313575089
10.34,2.2997977283666842
10.344,2.6793151656456757
10.348,2.6217533949529752
10.352,2.2737811088445596
10.356,2.2646752920118161
10.36,2.6656564403965604
10.364,2.6799655811337288
10.368,2.3531317983870395
10.372,2.2461384506023023
10.376,2.6441927292908076
10.38,2.7492348306113854
10.384,2.4532957835472189
10.388,2.2571955138992053
10.392,2.6149240323284175
10.396,2.7960647457512096
10.4,2.5407766666903626
10.404,2.2708542391483206
10.408,2.5563866384036373
10.412,2.810373886488378
10.416,2.6129727858642582
10.42,2.290366703789914
10.424,2.4887434276461136
10.428,2.7941134992870502
10.432,2.6451683525228873
10.436,2.284512964397436
10.44,2.3781727946770843
10.444,2.738502975058509
10.448,2.6500464686832856
10.452,2.266951746220002
10.456,2.2409351266978774
10.46,2.6269567188574001
10.464,2.6198021484888159
10.468,2.2562198906671256
10.472,2.1303644937288482
10.476,2.5225650330248754
10.48,2.6032165535434615
10.484,2.2770331862848252
10.488,2.0682498146197759
10.492,2.4425639279943425
10.496,2.6178509020246565
10.5,2.3381722421618178
10.504,2.0581683745549526
10.508,2.3628880307078362
10.512,2.6230542259290814
10.516,2.4028885832231026
10.52,2.0767052159644663
10.524,2.3001229361107107
10.528,2.6289079653215595
10.532,2.4718326249567326
10.536,2.1128032755514141
10.54,2.2207722465682309
10.544,2.5937855289666913
10.548,2.5150852549122646
10.552,2.1537794512987603
10.556,2.1508525816025212
10.56,2.5554110151715577
10.564,2.5606143390759826
10.568,2.215568922663806
10.572,2.112152860063361
10.576,2.5131340084481053
10.58,2.6041921767755412
10.584,2.2858137953735422
10.588,2.0812581243808381
10.592,2.4549218222673517
10.596,2.6337860814819578
10.6,2.3632132384518627
10.604,2.0890631102374755
10.608,2.4028885832231026
10.612,2.651997715147445
10.616,2.4295556182332803
10.62,2.1036974587186705
10.624,2.3297168408171274
10.628,2.6532985461235512
10.632,2.5020769451512024
10.636,2.1476005041622557
10.64,2.2653257074998692
10.644,2.6289079653215595
10.648,2.5537849764514249
10.652,2.1996337432065047
10.656,2.2145932994317263
10.66,2.6129727858642582
10.664,2.6113467471441254
10.668,2.2718298623804003
10.672,2.1706902539881412
10.676,2.5664680784684606
10.68,2.6526481306354981
10.684,2.3371966189297382
10.688,2.1476005041622557
10.692,2.5163860858883709
10.696,2.6796403733897023
10.7,2.4061406606633682
10.704,2.1310149092169013
10.708,2.4354093576257583
10.712,2.680615996621782
10.716,2.4552470300113782
10.72,2.1297140782407951
10.724,2.3583351222914644
10.728,2.677689126925543
10.732,2.5157356704003178
10.736,2.1687390075239819
10.74,2.2991473128786311
10.744,2.6731362185091712
10.748,2.5739478565810714
10.752,2.2041866516228765
10.756,2.2276016091927886
10.76,2.6396398208744358
10.764,2.6396398208744358
10.768,2.2984968973905779
10.772,2.2058126903430093
10.776,2.614598824584391
10.78,2.6994780457753222
10.784,2.3814248721173499
10.788,2.1885766799096018
10.792,2.548581652547
10.796,2.7017544999835081
10.8,2.4074414916394744
10.804,2.1261367930565029
10.808,2.4412630970182363
10.812,2.68646973601426
10.816,2.4532957835472189
10.82,2.1293888704967685
10.824,2.3693921855883673
10.828,2.68646973601426
10.832,2.5154104626562912
10.836,2.158332359715132
10.84,2.293293573486153
10.844,2.6536237538675778
10.848,2.5706957791408058
10.852,2.2103655987593811
10.856,2.2337805563292932
10.86,2.6181761097686831
10.864,2.5811024269496556
10.868,2.2217478698003106
10.872,2.1625600603874773
10.876,2.6412658595945686
10.88,2.8731389810855035
10.884,2.761267517140368
10.888,2.758340647444129
10.892,3.206476918712724
10.896,3.4685943603981286
10.9,3.177858637238387
10.904,2.6129727858642582
10.908,2.5293943956494331
10.912,2.5401262512023095
10.916,2.255894682923099
10.92,1.9560531429306138
10.924,2.2246747394965496
10.928,2.5824032579257619
10.932,2.4679301320284139
10.936,2.1482509196503088
10.94,2.2838625489093829
10.944,2.6425666905706748
10.948,2.5479312370589469
10.952,2.1931295883259736
10.956,2.2197966233361512
10.96,2.6152492400724441
10.964,2.6100459161680192
10.968,2.2679273694520816
10.972,2.1820725250290707
10.976,2.5775251417653635
10.98,2.6542741693556309
10.984,2.3404486963700037
10.988,2.1615844371553976
10.992,2.5323212653456721
10.996,2.6936243063828442
11,2.4279295795131475
11.004,2.175243162404513
11.008,2.4893938431341667
11.012,2.7228930033452343
11.016,2.5007761141750962
11.02,2.1973572889983188
11.024,2.4389866428100504
11.028,2.7352508976182435
11.032,2.5658176629804075
11.036,2.2191462078480981
11.04,2.3606115764996503
11.044,2.7196409259049688
11.048,2.6386641976423562
11.052,2.293293573486153
11.056,2.3241883091686759
11.06,2.7157384329766501
11.064,2.7170392639527563
11.068,2.3859777805337217
11.072,2.3085783374554012
11.076,2.6972015915671363
11.08,2.7713489572051913
11.084,2.4747594946529716
11.088,2.307277506479295
11.092,2.6737866339972243
11.096,2.8266342736897059
11.1,2.5570370538916904
11.104,2.3092287529434543
11.108,2.6178509020246565
11.112,2.8484231925394852
11.116,2.6217533949529752
11.12,2.2997977283666842
11.124,2.5157356704003178
11.128,2.8009428619116079
11.132,2.6269567188574001
11.136,2.2682525771961082
11.14,2.3814248721173499
11.144,2.704030954191694
11.148,2.5840292966458946
11.152,2.218495792360045
11.156,2.241260334441904
11.16,2.6054930077516474
11.164,2.5654924552363809
11.168,2.2171949613839388
11.172,2.1342669866571669
11.176,2.5118331774719991
11.18,2.5697201559087262
11.184,2.2484149048104882
11.188,2.0728027230361477
11.192,2.4321572801854927
11.196,2.5843545043899212
11.2,2.304350636783056
11.204,2.0571927513228729
11.208,2.3739450940047391
11.212,2.6093955006799661
11.216,2.3810996643733233
11.22,2.0721523075480945
11.224,2.3098791684315074
11.228,2.6080946697038598
11.232,2.4354093576257583
11.236,2.0936160186538473
11.24,2.2480896970664617
11.244,2.5999644761031959
11.248,2.4952475825266447
11.252,2.146624880930176
11.256,2.2002841586945578
11.26,2.5794763882295229
11.264,2.5446791596186813
11.268,2.2032110283907969
11.272,2.137844271841459
11.276,2.5271179414412472
11.28,2.5895578282943461
11.284,2.2789844327489845
11.288,2.1141041065275203
11.292,2.4845157269737683
11.296,2.6250054723932408
11.3,2.3397982808819506
11.304,2.0942664341419004
11.308,2.4266287485370412
11.312,2.6536237538675778
11.316,2.4149212697520852
11.32,2.1066243284149095
11.324,2.3573594990593847
11.328,2.6536237538675778
11.332,2.4783367798372637
11.336,2.1420719725138042
11.34,2.3040254290390294
11.344,2.6568758313078433
11.348,2.5446791596186813
11.352,2.1830481482611503
11.356,2.2259755704726558
11.36,2.6149240323284175
11.364,2.5824032579257619
11.368,2.2337805563292932
11.372,2.1667877610598225
11.376,2.5576874693797436
11.38,2.6100459161680192
11.384,2.2871146263496485
11.388,2.1196326381759718
11.392,2.4802880263014231
11.396,2.6110215394000988
11.4,2.3212614394724369
11.404,2.0828841631009709
11.408,2.4032137909671292
11.412,2.6305340040416922
11.416,2.3999617135268636
11.42,2.1010957967664581
11.424,2.3420747350901365
11.428,2.6386641976423562
11.432,2.4604503539158031
11.436,2.1222343001281843
11.44,2.2780088095169049
11.444,2.6334608737379313
11.448,2.5241910717450082
11.452,2.1739423314284068
11.456,2.2259755704726558
11.46,2.6230542259290814
11.464,2.6032165535434615
11.468,2.2737811088445596
11.472,2.2223982852883637
11.476,2.6071190464717802
11.48,2.6419162750826217
11.484,2.3085783374554012
11.488,2.1414215570257511
11.492,2.5020769451512024
11.496,2.6282575498335063
11.5,2.3401234886259772
11.504,2.1059739129268564
11.508,2.4308564492093865
11.512,2.6477700144750997
11.516,2.4074414916394744
11.52,2.1020714199985377
11.524,2.3589855377795175
11.528,2.6497212609392591
11.532,2.468580547516467
11.536,2.1284132472646888
11.54,2.293293573486153
11.544,2.6406154441065155
11.548,2.5124835929600522
11.552,2.1277628317766357
11.556,2.1570315287390258
11.56,2.5469556138268672
11.564,2.5804520114616025
11.568,2.3827257030934561
11.572,2.5007761141750962
11.576,3.0419218002352864
11.58,3.3033888264326379
11.584,3.160297419060953
11.588,3.014279141993029
11.592,3.1323295530746691
11.596,2.8679356571810786
11.6,2.2900414960458875
11.604,1.9645085442753043
11.608,2.2978464819025248
11.612,2.5381750047381502
11.616,2.3345949569775257
11.62,2.0711766843160149
11.624,2.3492293054587208
11.628,2.6526481306354981
11.632,2.4698813784925733
11.636,2.1310149092169013
11.64,2.2900414960458875
11.644,2.6412658595945686
11.648,2.525817110465141
11.652,2.1788204475888051
11.656,2.2409351266978774
11.66,2.6298835885536391
11.664,2.5876065818301868
11.668,2.2419107499299571
11.672,2.1931295883259736
11.676,2.594761152198771
11.68,2.6428918983147014
11.684,2.324838724656729
11.688,2.1726415004523005
11.692,2.5537849764514249
11.696,2.6822420353419147
11.7,2.3934575586463325
11.704,2.1619096448994242
11.708,2.4871173889259808
11.712,2.701104084495455
11.716,2.4659788855642546
11.72,2.1755683701485395
11.724,2.425327917560935
11.728,2.7072830316319596
11.732,2.5342725118098315
11.736,2.209715183271328
11.74,2.3713434320525266
11.744,2.7206165491370484
11.748,2.6132979936082847
11.752,2.2770331862848252
11.756,2.3407739041140303
11.76,2.7245190420653671
11.764,2.7043561619357206
11.768,2.373294678516686
11.772,2.3271151788649149
11.776,2.7066326161439065
11.78,2.7508608693315182
11.784,2.4396370582981035
11.788,2.2994725206226576
11.792,2.6594774932600558
11.796,2.7830564359901473
11.8,2.5105323464958929
11.804,2.2890658728138078
11.808,2.5963871909189038
11.812,2.7859833056863863
11.816,2.5463051983388141
11.82,2.2467888660903554
11.824,2.4747594946529716
11.828,2.7313484046899248
11.832,2.5375245892500971
11.836,2.1911783418618143
11.84,2.3433755660662428
11.844,2.6685833100927994
11.848,2.5339473040658049
11.852,2.169389423012035
11.856,2.224349531752523
11.86,2.5954115676868241
11.864,2.5362237582739908
11.868,2.1797960708208848
11.872,2.1336165711691137
11.876,2.5284187724173535
11.88,2.5596387158439029
11.884,2.2344309718173463
11.888,2.0932908109098207
11.892,2.4793124030693434
11.896,2.5967123986629304
11.9,2.3040254290390294
11.904,2.0796320856607053
11.908,2.4243522943288554
11.912,2.6240298491611611
11.916,2.370367808820447
11.92,2.0763800082204398
11.924,2.3524813828989863
11.928,2.6334608737379313
11.932,2.4412630970182363
11.936,2.1105268213432282
11.94,2.2942691967182327
11.944,2.6406154441065155
11.948,2.5167112936323974
11.952,2.1641860991076101
11.956,2.2357318027934525
11.96,2.6172004865366034
11.964,2.5638664165162481
11.968,2.2139428839436732
11.972,2.172316292708274
11.976,2.5710209868848324
11.98,2.6041921767755412
11.984,2.2793096404930111
11.988,2.137844271841459
11.992,2.5163860858883709
11.996,2.6276071343454532
12,2.3310176717932336
12.004,2.103372250974644
12.008,2.4386614350660238
12.012,2.6344364969700109
12.016,2.3872786115098279
12.02,2.1010957967664581
12.024,2.3706930165644735
12.028,2.6467943912430201
12.032,2.4581738997076172
12.036,2.1297140782407951
12.04,2.3001229361107107
12.044,2.6285827575775329
12.048,2.497198828990804
12.052,2.1489013351383619
12.056,2.2282520246808417
12.06,2.6106963316560723
12.064,2.5606143390759826
12.068,2.2168697536399122
12.072,2.1833733560051769
12.076,2.5791511804854963
12.08,2.6025661380554084
12.084,2.27280548561248
12.088,2.1375190640974324
12.092,2.5186625400965568
12.096,2.6269567188574001
12.1,2.3336193337454461
12.104,2.1134536910394672
12.108,2.4493932906189002
12.112,2.6415910673385952
12.116,2.3921567276702262
12.12,2.109225990367122
12.124,2.3804492488852702
12.128,2.6516725074034184
12.132,2.4532957835472189
12.136,2.1241855465923436
12.14,2.3030498058069497
12.144,2.6373633666662499
12.148,2.5105323464958929
12.152,2.169389423012035
12.156,2.2552442674350459
12.16,2.6354121202020906
12.164,2.5755738953012042
12.168,2.2328049330972135
12.172,2.2188210001040716
12.176,2.6318348350177985
12.18,2.66663206362864
12.184,2.3407739041140303
12.188,2.2025606129027437
12.192,2.5817528424377088
12.196,2.6741118417412508
12.2,2.3580099145474378
12.204,2.1310149092169013
12.208,2.4702065862365998
12.212,2.6552497925877105
12.216,2.4025633754790761
12.22,2.1189822226879187
12.224,2.4035389987111557
12.228,2.6721605952770915
12.232,2.4711822094686795
12.236,2.1352426098892465
12.24,2.3222370627045166
12.244,2.654924584843684
12.248,2.5251666949770879
12.252,2.1823977327730972
12.256,2.2653257074998692
12.26,2.6217533949529752
12.264,2.5180121246085037
12.268,2.1563811132509727
12.272,2.1827229405171238
12.276,2.6962259683350567
12.28,2.8923262379830703
12.284,2.7716741649492178
12.288,2.8224065730173606
12.292,3.2809494920948055
12.296,3.4533095964288805
12.3,3.056881356460508
12.304,2.4919955050863791
12.308,2.5466304060828406
12.312,2.6132979936082847
12.316,2.3293916330731008
12.32,2.0669489836436696
12.324,2.3771971714450046
12.328,2.6640304016764276
12.332,2.4682553397724405
12.336,2.1397955183056183
12.34,2.3206110239843838
12.344,2.6441927292908076
12.348,2.5095567232638132
12.352,2.1687390075239819
12.356,2.2519921899947803
12.36,2.6227290181850549
12.364,2.5593135080998763
12.368,2.2158941304078326
12.372,2.1980077044863719
12.376,2.5967123986629304
12.38,2.6201273562328424
12.384,2.2958952354383655
12.388,2.1732919159403536
12.392,2.5638664165162481
12.396,2.6698841410689056
12.4,2.3758963404688984
12.404,2.172316292708274
12.408,2.5274431491852738
12.412,2.7098846935841721
12.416,2.4637024313560687
12.42,2.1889018876536284
12.424,2.4695561707485467
12.428,2.723868626577314
12.432,2.5254919027211145
12.436,2.2080891445511952
12.44,2.4051650374312885
12.444,2.723868626577314
12.448,2.5967123986629304
12.452,2.2656509152438957
12.456,2.3625628229638096
12.46,2.729722365969792
12.464,2.6750874649733305
12.468,2.3430503583222162
12.472,2.335895787953632
12.476,2.7336248588981107
12.48,2.761267517140368
12.484,2.451019329339033
12.488,2.34174952734611
12.492,2.7144376020005438
12.496,2.8067966013040859
12.5,2.5160608781443443
12.504,2.3199606084963307
12.508,2.6601279087481089
12.512,2.8399677911947947
12.516,2.588907412806293
12.52,2.310204376175534
12.524,2.5716714023728855
12.528,2.8110243019764312
12.532,2.5934603212226648
12.536,2.2536182287149131
12.54,2.4285799950012006
12.544,2.7254946652974468
12.548,2.5599639235879295
12.552,2.1941052115580533
12.556,2.2793096404930111
12.56,2.6435423138027545
12.564,2.5625655855401419
12.568,2.20386144387885
12.572,2.1807716940529644
12.576,2.5693949481646996
12.58,2.5755738953012042
12.584,2.238333464745665
12.588,2.118006599455839
12.592,2.5050038148474414
12.596,2.5999644761031959
12.6,2.2929683657421265
12.604,2.086461448285263
12.608,2.4490680828748737
12.612,2.6337860814819578
12.616,2.3742703017487656
12.62,2.0962176806060597
12.624,2.3902054812060669
12.628,2.6467943912430201
12.632,2.4328076956735458
12.636,2.1069495361589361
12.64,2.316058115568012
12.644,2.6341112892259844
12.648,2.4819140650215559
12.652,2.137844271841459
12.656,2.2510165667627007
12.66,2.6188265252567362
12.664,2.5453295751067344
12.668,2.1999589509505313
12.672,2.1954060425341595
12.676,2.5798015959735494
12.68,2.5853301276220009
12.684,2.2594719681073911
12.688,2.152478620322654
12.692,2.5329716808337253
12.696,2.620452563976869
12.7,2.3199606084963307
12.704,2.1248359620803967
12.708,2.4815888572775293
12.712,2.6581766622839496
12.716,2.3892298579739872
12.72,2.1134536910394672
12.724,2.4097179458476603
12.728,2.6633799861883745
12.732,2.4545966145233251
12.736,2.13491740214522
12.74,2.3456520202744287
12.744,2.6614287397242151
12.748,2.5121583852160256
12.752,2.166462553315796
12.756,2.2695534081722144
12.76,2.6328104582498781
12.764,2.5534597687073983
12.768,2.2077639368071686
12.772,2.2041866516228765
12.776,2.5941107367107179
12.78,2.5950863599427976
12.784,2.258821552619338
12.788,2.1511777893465478
12.792,2.5489068602910265
12.796,2.6367129511781968
12.8,2.3280908020969946
12.804,2.1290636627527419
12.808,2.4929711283184588
12.812,2.6676076868607197
12.816,2.4006121290149167
12.82,2.1306897014728747
12.824,2.4357345653697848
12.828,2.6910226444306318
12.832,2.4702065862365998
12.836,2.1430475957458839
12.84,2.3596359532675706
12.844,2.6773639191815164
12.848,2.5222398252808489
12.852,2.1755683701485395
12.856,2.2952448199503124
12.86,2.6689085178368259
12.864,2.5892326205503196
12.868,2.2432115809060633
12.872,2.2497157357865945
12.876,2.6454935602669138
12.88,2.6341112892259844
12.884,2.2880902495817281
12.888,2.1814221095410176
12.892,2.5794763882295229
12.896,2.6685833100927994
12.9,2.3589855377795175
12.904,2.1635356836195569
12.908,2.5303700188815128
12.912,2.7014292922394816
12.916,2.4305312414653599
12.92,2.1632104758755304
12.924,2.4695561707485467
12.928,2.7313484046899248
12.932,2.5326464730896987
12.936,2.2236991162644699
12.94,2.442238720250316
12.944,2.7456575454270933
12.948,2.5778503495093901
12.952,2.2207722465682309
12.956,2.3323185027693398
12.96,2.689396605710499
12.964,2.5980132296390366
12.968,2.2461384506023023
12.972,2.2562198906671256
12.976,2.6471195989870466
12.98,2.6480952222191263
12.984,2.3128060381277464
12.988,2.2106908065034077
12.992,2.591834282502532
12.996,2.6705345565569587
13,2.3658149004040752
13.004,2.1755683701485395
13.008,2.5284187724173535
13.012,2.6770387114374898
13.016,2.3684165623562876
13.02,2.0692254378518555
13.024,2.3889046502299607
13.028,2.720941756881075
13.032,2.6500464686832856
13.036,2.5098819310078397
13.04,2.8711877346213441
13.044,3.3121694355213549
13.048,3.3167223439377267
13.052,2.9934658463753294
13.056,2.8754154352936894
13.06,2.8806187591981143
13.064,2.5866309585981071
13.068,2.1628852681315038
13.072,2.1745927469164599
13.076,2.6064686309837271
13.08,2.6311844195297454
13.084,2.3023993903188966
13.088,2.1996337432065047
13.092,2.5885822050622664
13.096,2.6627295707003213
13.1,2.3472780589945614
13.104,2.1570315287390258
13.108,2.5277683569293004
13.112,2.6919982676627114
13.116,2.4090675303596072
13.12,2.1394703105615918
13.124,2.448092459642794
13.128,2.6929738908947911
13.132,2.4721578327007592
13.136,2.1596331906912383
13.14,2.3921567276702262
13.144,2.7014292922394816
13.148,2.5381750047381502
13.152,2.1934547960700002
13.156,2.3228874781925697
13.16,2.6906974366866052
13.164,2.6045173845195677
13.168,2.2575207216432318
13.172,2.2763827707967721
13.176,2.6689085178368259
13.18,2.6594774932600558
13.184,2.3264647633768618
13.188,2.2363822182815056
13.192,2.6172004865366034
13.196,2.6929738908947911
13.2,2.3892298579739872
13.204,2.2048370671109296
13.208,2.5567118461476639
13.212,2.7225677956012078
13.216,2.4708570017246529
13.22,2.2276016091927886
13.224,2.5323212653456721
13.228,2.7778531120857224
13.232,2.5693949481646996
13.236,2.2695534081722144
13.24,2.4900442586222198
13.244,2.8038697316078469
13.248,2.6627295707003213
13.252,2.3365462034416851
13.256,2.4611007694038562
13.26,2.8110243019764312
13.264,2.7277711195056327
13.268,2.387929026997881
13.272,2.4012625445029698
13.276,2.7693977107410319
13.28,2.7492348306113854
13.284,2.4061406606633682
13.288,2.2984968973905779
13.292,2.6526481306354981
13.296,2.7020797077275347
13.3,2.3771971714450046
13.304,2.1827229405171238
13.308,2.5202885788166896
13.312,2.6545993770996574
13.316,2.3632132384518627
13.32,2.0903639412135817
13.324,2.3876038192538545
13.328,2.6227290181850549
13.332,2.3973600515746512
13.336,2.0845102018211037
13.34,2.3215866472164635
13.344,2.6318348350177985
13.348,2.456873068731511
13.352,2.1053234974388033
13.356,2.2380082570016384
13.36,2.594761152198771
13.364,2.4955727902706712
13.368,2.1459744654421229
13.372,2.1755683701485395
13.376,2.5596387158439029
13.38,2.5398010434582829
13.384,2.2035362361348234
13.388,2.1241855465923436
13.392,2.5202885788166896
13.396,2.591834282502532
13.4,2.2796348482370377
13.404,2.1014210045104846
13.408,2.468580547516467
13.412,2.620452563976869
13.416,2.3469528512505349
13.42,2.0962176806060597
13.424,2.4149212697520852
13.428,2.6471195989870466
13.432,2.4152464774961118
13.436,2.0988193425582722
13.44,2.3365462034416851
13.444,2.6480952222191263
13.448,2.4750847023969982
13.452,2.1293888704967685
13.456,2.2682525771961082
13.46,2.6341112892259844
13.464,2.5326464730896987
13.468,2.1755683701485395
13.472,2.2054874825989828
13.476,2.6090702929359395
13.48,2.5856553353660274
13.484,2.2419107499299571
13.488,2.1580071519711055
13.492,2.5583378848677967
13.496,2.6217533949529752
13.5,2.3059766755031887
13.504,2.1326409479370341
13.508,2.5017517374071758
13.512,2.6506968841713388
13.516,2.3677661468682345
13.52,2.1095511981111486
13.524,2.4201245936565101
13.528,2.6594774932600558
13.532,2.4318320724414662
13.536,2.123860338848317
13.54,2.3612619919877034
13.544,2.66663206362864
13.548,2.4945971670385916
13.552,2.1518282048346009
13.556,2.2971960664144717
13.56,2.6474448067310732
13.564,2.5411018744343892
13.568,2.1970320812542923
13.572,2.235406595049426
13.576,2.6178509020246565
13.58,2.5928099057346117
13.584,2.2575207216432318
13.588,2.1879262644215487
13.592,2.5651672474923544
13.596,2.6178509020246565
13.6,2.3037002212950028
13.604,2.1345921944011934
13.608,2.494271959294565
13.612,2.6441927292908076
13.616,2.3693921855883673
13.62,2.120933469152078
13.624,2.4269539562810678
13.628,2.6542741693556309
13.632,2.4272791640250944
13.636,2.1251611698244233
13.64,2.3606115764996503
13.644,2.6624043629562948
13.648,2.4923207128304057
13.652,2.1576819442270789
13.656,2.3066270909912419
13.66,2.6633799861883745
13.664,2.5560614306596108
13.668,2.2045118593669031
13.672,2.2448376196261961
13.676,2.6370381589222234
13.68,2.6058182154956739
13.684,2.2630492532916833
13.688,2.1931295883259736
13.692,2.5908586592704523
13.696,2.6428918983147014
13.7,2.3238631014246494
13.704,2.158332359715132
13.708,2.5388254202262033
13.712,2.6760630882054102
13.716,2.387929026997881
13.72,2.1368686486093793
13.724,2.4630520158680156
13.728,2.6906974366866052
13.732,2.4620763926359359
13.736,2.1576819442270789
13.74,2.4038642064551823
13.744,2.7059822006558534
13.748,2.5329716808337253
13.752,2.2025606129027437
13.756,2.3632132384518627
13.76,2.7274459117616061
13.764,2.6178509020246565
13.768,2.2578459293872584
13.772,2.2848381721414626
13.776,2.6614287397242151
13.78,2.6188265252567362
13.784,2.27280548561248
13.788,2.2071135213191155
13.792,2.6025661380554084
13.796,2.6500464686832856
13.8,2.3313428795372602
13.804,2.1635356836195569
13.808,2.5274431491852738
13.812,2.6585018700279761
13.816,2.3784980024211109
13.82,2.1404459337936714
13.824,2.4578486919635907
13.828,2.672485803021118
13.832,2.4373606040899176
13.836,2.1183318071998656
13.84,2.3316680872812867
13.844,2.5993140606151428
13.848,2.4493932906189002
13.852,2.2181705846160185
13.856,2.4968736212467775
13.86,2.9970431315596215
13.864,3.1004591941600665
13.868,2.9368796989147086
13.872,3.0367184763308614
13.876,3.3046896574087441
13.88,3.0009456244879402
13.884,2.3420747350901365
13.888,2.1339417789131403
13.892,2.5046786071034148
13.896,2.5635412087722216
13.9,2.275732355308719
13.904,2.1469500886742026
13.908,2.5355733427859377
13.912,2.672485803021118
13.916,2.3889046502299607
13.92,2.1404459337936714
13.924,2.4558974454994313
13.928,2.6646808171644807
13.932,2.425327917560935
13.936,2.1313401169609278
13.94,2.3856525727896951
13.944,2.672485803021118
13.948,2.4880930121580604
13.952,2.1528038280666806
13.956,2.3180093620321713
13.96,2.6692337255808525
13.964,2.5589883003558498
13.968,2.2162193381518591
13.972,2.2750819398206659
13.976,2.6640304016764276
13.98,2.6266315111133736
13.984,2.2877650418377016
13.988,2.2357318027934525
13.992,2.6256558878812939
13.996,2.6676076868607197
14,2.353457006131066
14.004,2.2077639368071686
14.008,2.5853301276220009
14.012,2.7157384329766501
14.016,2.4357345653697848
14.02,2.2035362361348234
14.024,2.5267927336972207
14.028,2.7365517285943497
14.032,2.5046786071034148
14.036,2.2217478698003106
14.04,2.4841905192297418
14.044,2.775901865621563
14.048,2.6012653070793021
14.052,2.2796348482370377
14.056,2.4448403822025284
14.06,2.792812668310944
14.064,2.6906974366866052
14.068,2.3515057596669067
14.072,2.4074414916394744
14.076,2.7882597598945722
14.08,2.7550885700038634
14.084,2.4204498014005367
14.088,2.3693921855883673
14.092,2.7576902319560759
14.096,2.8038697316078469
14.1,2.4880930121580604
14.104,2.3280908020969946
14.108,2.6770387114374898
14.112,2.7850076824543066
14.116,2.4835401037416887
14.12,2.2295528556569479
14.124,2.5267927336972207
14.128,2.7134619787684642
14.132,2.4549218222673517
14.136,2.1462996731861494
14.14,2.3804492488852702
14.144,2.6493960531952325
14.148,2.453946199035272
14.152,2.1202830536640249
14.156,2.2718298623804003
14.16,2.6100459161680192
14.164,2.4845157269737683
14.168,2.1362182331213262
14.172,2.1999589509505313
14.176,2.5879317895742133
14.18,2.5336220963217784
14.184,2.1853246024693362
14.188,2.1404459337936714
14.192,2.5381750047381502
14.196,2.5703705713967793
14.2,2.2519921899947803
14.204,2.1134536910394672
14.208,2.4851661424618214
14.212,2.5996392683591694
14.216,2.3108547916635871
14.22,2.0871118637733161
14.224,2.4113439845677931
14.228,2.6093955006799661
14.232,2.3680913546122611
14.236,2.0819085398688912
14.24,2.3440259815542959
14.244,2.623379433673108
14.248,2.4389866428100504
14.252,2.1160553529916797
14.256,2.293293573486153
14.26,2.6318348350177985
14.264,2.5053290225914679
14.268,2.1609340216673445
14.272,2.2334553485852666
14.276,2.6178509020246565
14.28,2.5648420397483278
14.284,2.2233739085204434
14.288,2.1856498102133628
14.292,2.5840292966458946
14.296,2.6048425922635943
14.3,2.2793096404930111
14.304,2.140771141537698
14.308,2.5254919027211145
14.312,2.6396398208744358
14.316,2.3498797209467739
14.32,2.1245107543363702
14.324,2.45979993842775
14.328,2.6575262467958964
14.332,2.4045146219432354
14.336,2.1111772368312813
14.34,2.3758963404688984
14.344,2.6529733383795246
14.348,2.4588243151956704
14.352,2.1323157401930075
14.356,2.3066270909912419
14.36,2.6458187680109404
14.364,2.5219146175368223
14.368,2.1801212785649113
14.372,2.2477644893224351
14.376,2.6334608737379313
14.38,2.583053673413815
14.384,2.2370326337695587
14.388,2.1921539650938939
14.392,2.5840292966458946
14.396,2.6113467471441254
14.4,2.2897162883018609
14.404,2.1541046590427868
14.408,2.5489068602910265
14.412,2.6659816481405869
14.416,2.3716686397965532
14.42,2.149551750626415
14.424,2.4910198818542995
14.428,2.6793151656456757
14.432,2.4269539562810678
14.436,2.1404459337936714
14.44,2.4123196077998728
14.444,2.6783395424135961
14.448,2.4893938431341667
14.452,2.1635356836195569
14.456,2.3437007738102693
14.46,2.6773639191815164
14.464,2.5508581067551859
14.468,2.2077639368071686
14.472,2.284512964397436
14.476,2.6585018700279761
14.48,2.6048425922635943
14.484,2.2663013307319488
14.488,2.238333464745665
14.492,2.6334608737379313
14.496,2.6601279087481089
14.5,2.3430503583222162
14.504,2.2106908065034077
14.508,2.5921594902465586
14.512,2.6998032535193488
14.516,2.4074414916394744
14.52,2.186950641189469
14.524,2.522890240768902
14.528,2.7079334471200127
14.532,2.45979993842775
14.536,2.1765439933806192
14.54,2.4477672518987674
14.544,2.7141123942565173
14.548,2.5154104626562912
14.552,2.1872758489334956
14.556,2.3697173933323938
14.56,2.7082586548640393
14.564,2.5817528424377088
14.568,2.2419107499299571
14.572,2.3241883091686759
14.576,2.7033805387036409
14.58,2.6510220919153653
14.584,2.3176841542881448
14.588,2.2955700276943389
14.592,2.6913478521746583
14.596,2.7076082393759862
14.6,2.382075287605403
14.604,2.2487401125545148
14.608,2.6240298491611611
14.612,2.7160636407206766
14.616,2.4123196077998728
14.62,2.1911783418618143
14.624,2.5358985505299643
14.628,2.7137871865124907
14.632,2.4607755616598297
14.636,2.1846741869812831
14.64,2.4676049242843874
14.644,2.7313484046899248
14.648,2.5238658640009817
14.652,2.2006093664385844
14.656,2.3921567276702262
14.66,2.7193157181609422
14.664,2.580126803717576
14.668,2.2220730775443371
14.672,2.281586094701197
14.676,2.6412658595945686
14.68,2.5996392683591694
14.684,2.3515057596669067
14.688,2.4617511848919094
14.692,2.9921650153992232
14.696,3.2009483870642725
14.7,3.074442574637942
14.704,3.0422470079793129
14.708,3.3066409038729034
14.712,3.1294026833784301
14.716,2.4757351178850513
14.72,2.0597944132750854
14.724,2.365164484916022
14.728,2.5684193249326199
14.732,2.3537822138750926
14.736,2.1274376240326092
14.74,2.4350841498817317
14.744,2.7072830316319596
14.748,2.5202885788166896
14.752,2.2090647677832749
14.756,2.3859777805337217
14.76,2.6900470211985521
14.764,2.5554110151715577
14.768,2.218495792360045
14.772,2.3056514677591622
14.776,2.6711849720450118
14.78,2.6172004865366034
14.784,2.2887406650697812
14.788,2.281586094701197
14.792,2.6656564403965604
14.796,2.6822420353419147
14.8,2.3619124074757565
14.804,2.2422359576739836
14.808,2.6282575498335063
14.812,2.7336248588981107
14.816,2.4445151744585019
14.82,2.2399595034657978
14.824,2.5853301276220009
14.828,2.7697229184850585
14.832,2.5235406562569551
14.836,2.2555694751790725
14.84,2.5336220963217784
14.844,2.7785035275737755
14.848,2.5778503495093901
14.852,2.2679273694520816
14.856,2.4708570017246529
14.86,2.7967151612392627
14.864,2.66663206362864
14.868,2.327765594352968
14.872,2.4211002168885898
14.876,2.7853328901983332
14.88,2.7284215349936858
14.884,2.4022381677350495
14.888,2.3960592205985449
14.892,2.7843572669662535
14.896,2.8064713935600594
14.9,2.4929711283184588
14.904,2.3788232101651374
14.908,2.7560641932359431
14.912,2.8533013086998835
14.916,2.5641916242602747
14.92,2.3664653158921283
14.924,2.7037057464476675
14.928,2.8750902275496628
14.932,2.6142736168403644
14.936,2.3352453724655788
14.94,2.594761152198771
14.944,2.8224065730173606
14.948,2.6009400993352756
14.952,2.2653257074998692
14.956,2.4383362273219973
14.96,2.7293971582257655
14.964,2.5667932862124871
14.968,2.2139428839436732
14.972,2.2952448199503124
14.976,2.6415910673385952
14.98,2.5658176629804075
14.984,2.2220730775443371
14.988,2.2019101974146906
14.992,2.5697201559087262
14.996,2.5765495185332838
15,2.2636996687797364
15.004,2.152478620322654
15.008,2.5219146175368223
15.012,2.6201273562328424
15.016,2.3300420485611539
15.02,2.131990532448981
15.024,2.462726808123989
15.028,2.6282575498335063
15.032,2.3723190552846063
15.036,2.1144293142715469
15.04,2.4012625445029698
15.044,2.6467943912430201
15.048,2.4425639279943425
15.052,2.1326409479370341
15.056,2.3401234886259772
15.06,2.6467943912430201
15.064,2.5014265296631493
15.068,2.1645113068516366
15.072,2.2718298623804003
15.076,2.6276071343454532
15.08,2.5524841454753187
15.084,2.212642052967567
15.088,2.2074387290631421
15.092,2.5872813740861602
15.096,2.5970376064069569
15.1,2.2750819398206659
15.104,2.1749179546604864
15.108,2.5537849764514249
15.112,2.6389894053863827
15.116,2.3469528512505349
15.12,2.1511777893465478
15.124,2.4994752831989899
15.128,2.6542741693556309
15.132,2.3924819354142528
15.136,2.1427223880018573
15.14,2.4409378892742097
15.144,2.6802907888777554
15.148,2.4659788855642546
15.152,2.1472752964182291
15.156,2.350530136434827
15.16,2.6536237538675778
15.164,2.5098819310078397
15.168,2.1719910849642474
15.172,2.2776836017728783
15.176,2.6243550569051877
15.18,2.5329716808337253
15.184,2.1924791728379205
15.188,2.206788313575089
15.192,2.5973628141509835
15.196,2.5950863599427976
15.2,2.2630492532916833
15.204,2.1602836061792914
15.208,2.5414270821784157
15.212,2.6214281872089487
15.216,2.3284160098410212
15.22,2.1417467647697777
15.224,2.4893938431341667
15.228,2.6545993770996574
15.232,2.3950835973664653
15.236,2.140771141537698
15.24,2.4289052027452271
15.244,2.6646808171644807
15.248,2.4458160054346081
15.252,2.1310149092169013
15.256,2.3450016047863755
15.26,2.6672824791166931
15.264,2.5193129555846099
15.268,2.1797960708208848
15.272,2.2871146263496485
15.276,2.6422414828266483
15.28,2.5567118461476639
15.284,2.2162193381518591
15.288,2.2285772324248683
15.292,2.6110215394000988
15.296,2.594761152198771
15.3,2.266951746220002
15.304,2.172316292708274
15.308,2.5502076912671328
15.312,2.6185013175127096
15.316,2.316058115568012
15.32,2.1365434408653527
15.324,2.491345089598326
15.328,2.6594774932600558
15.332,2.396709636086598
15.336,2.1384946873295121
15.34,2.4367101886018645
15.344,2.6718353875330649
15.348,2.4523201603151392
15.352,2.146624880930176
15.356,2.3654896926600486
15.36,2.6598027010040823
15.364,2.5124835929600522
15.368,2.1823977327730972
15.372,2.3037002212950028
15.376,2.6536237538675778
15.38,2.5824032579257619
15.384,2.25296781322686
15.388,2.2646752920118161
15.392,2.6276071343454532
15.396,2.6080946697038598
15.4,2.2666265384759754
15.404,2.1651617223396897
15.408,2.5398010434582829
15.412,2.6119971626321785
15.416,2.3082531297113746
15.42,2.1300392859848216
15.424,2.4887434276461136
15.428,2.6412658595945686
15.432,2.3684165623562876
15.436,2.1176813917118125
15.44,2.4305312414653599
15.444,2.6685833100927994
15.448,2.4425639279943425
15.452,2.1332913634250872
15.456,2.359310745523544
15.46,2.6503716764273122
15.464,2.4594747306837235
15.468,2.1300392859848216
15.472,2.3303672563051805
15.476,2.8175284568569623
15.48,2.9271234665939119
15.484,2.775901865621563
15.488,2.9180176497611683
15.492,3.3547716499888338
15.496,3.3616010126133915
15.5,2.8025689006317407
15.504,2.2971960664144717
15.508,2.434108526649652
15.512,2.4263035407930147
15.516,2.1303644937288482
15.52,1.9849966321489774
15.524,2.39085589669412
15.528,2.5954115676868241
15.532,2.370367808820447
15.536,2.1391451028175652
15.54,2.4474420441547409
15.544,2.6796403733897023
15.548,2.4653284700762015
15.552,2.1654869300837163
15.556,2.3947583896224387
15.56,2.6900470211985521
15.564,2.5290691879054066
15.568,2.1973572889983188
15.572,2.3238631014246494
15.576,2.6718353875330649
15.58,2.5765495185332838
15.584,2.2402847112098243
15.588,2.266951746220002
15.592,2.6406154441065155
15.596,2.6295583808096126
15.6,2.3040254290390294
15.604,2.227276401448762
15.608,2.5980132296390366
15.612,2.6663068558846135
15.616,2.3710182243085001
15.62,2.2032110283907969
15.624,2.5495572757790796
15.628,2.7170392639527563
15.632,2.4637024313560687
15.636,2.2249999472405761
15.64,2.5189877478405833
15.644,2.7515112848195713
15.648,2.5469556138268672
15.652,2.2555694751790725
15.656,2.4799628185573965
15.66,2.7736254114133772
15.664,2.6253306801372673
15.668,2.3092287529434543
15.672,2.4425639279943425
15.676,2.7778531120857224
15.68,2.7053317851678003
15.684,2.3928071431582794
15.688,2.4207750091445632
15.692,2.7755766578775365
15.696,2.7693977107410319
15.7,2.4519949525711127
15.704,2.365164484916022
15.708,2.7173644716967829
15.712,2.7859833056863863
15.716,2.5033777761273086
15.72,2.3319932950253133
15.724,2.6542741693556309
15.728,2.7807799817819614
15.732,2.5079306845436804
15.736,2.2526426054828335
15.74,2.5326464730896987
15.744,2.723868626577314
15.748,2.4728082481888123
15.752,2.1544298667868134
15.756,2.3693921855883673
15.76,2.6425666905706748
15.764,2.4698813784925733
15.768,2.1414215570257511
15.772,2.2679273694520816
15.776,2.5950863599427976
15.78,2.4962232057587244
15.784,2.1619096448994242
15.788,2.192804380581947
15.792,2.5586630926118232
15.796,2.5440287441306282
15.8,2.221422662056284
15.804,2.1368686486093793
15.808,2.5059794380795211
15.812,2.5658176629804075
15.816,2.2591467603633646
15.82,2.0877622792613693
15.824,2.4454907976905815
15.828,2.5954115676868241
15.832,2.3274403866089415
15.836,2.0796320856607053
15.84,2.3866281960217748
15.844,2.6054930077516474
15.848,2.3814248721173499
15.852,2.0861362405412365
15.856,2.3254891401447821
15.86,2.6201273562328424
15.864,2.4503689138509799
15.868,2.1189822226879187
15.872,2.2591467603633646
15.876,2.6064686309837271
15.88,2.5037029838713352
15.884,2.1667877610598225
15.888,2.2064631058310624
15.892,2.5954115676868241
15.896,2.5664680784684606
15.9,2.2328049330972135
15.904,2.1641860991076101
15.908,2.5479312370589469
15.912,2.6002896838472225
15.916,2.2923179502540734
15.92,2.1313401169609278
15.924,2.4890686353901401
15.928,2.6266315111133736
15.932,2.3570342913153581
15.936,2.1228847156162374
15.94,2.4315068646974396
15.944,2.6484204299631529
15.948,2.4152464774961118
15.952,2.1150797297596
15.956,2.3423999428341631
15.96,2.629233173065586
15.964,2.4633772236120421
15.968,2.1345921944011934
15.972,2.2715046546363737
15.976,2.6074442542158067
15.98,2.5089063077757601
15.984,2.1739423314284068
15.988,2.2093899755273014
15.992,2.5713461946288589
15.996,2.5394758357142564
16,2.2175201691279653
16.004,2.1567063209949993
16.008,2.5193129555846099
16.012,2.5651672474923544
16.016,2.2679273694520816
16.02,2.1186570149438921
16.024,2.4698813784925733
16.028,2.6097207084239926
16.032,2.3336193337454461
16.036,2.0962176806060597
16.04,2.4035389987111557
16.044,2.6142736168403644
16.048,2.3797988333972171
16.052,2.0903639412135817
16.056,2.3375218266737647
16.06,2.623379433673108
16.064,2.4519949525711127
16.068,2.1332913634250872
16.072,2.2841877566534095
16.076,2.6087450851919129
16.08,2.4897190508781932
16.084,2.1511777893465478
16.088,2.2035362361348234
16.092,2.5885822050622664
16.096,2.5700453636527527
16.1,2.2438619963941164
16.104,2.1732919159403536
16.108,2.5531345609633718
16.112,2.6084198774478864
16.116,2.3089035451994278
16.12,2.1635356836195569
16.124,2.5440287441306282
16.128,2.6711849720450118
16.132,2.385002157301642
16.136,2.1433728034899104
16.14,2.451019329339033
16.144,2.6510220919153653
16.148,2.4087423226155806
16.152,2.1040226664626971
16.156,2.3459772280184552
16.16,2.6282575498335063
16.164,2.4526453680591658
16.168,2.1215838846401311
16.172,2.2773583940288518
16.176,2.6129727858642582
16.18,2.5076054767996538
16.184,2.1726415004523005
16.188,2.232479725353187
16.192,2.6084198774478864
16.196,2.5680941171885934
16.2,2.2204470388242044
16.204,2.1541046590427868
16.208,2.5284187724173535
16.212,2.5693949481646996
16.216,2.3124808303837199
16.22,2.2887406650697812
16.224,2.7915118373348378
16.228,3.1069633490405977
16.232,3.0422470079793129
16.236,2.9648475649009924
16.24,3.2412741473235656
16.244,3.2539572493406013
16.248,2.6370381589222234
16.252,2.0155661600874737
16.256,2.1619096448994242
16.26,2.4676049242843874
16.264,2.324838724656729
16.268,2.0399567408894654
16.272,2.2467888660903554
16.276,2.6211029794649221
16.28,2.5245162794890348
16.284,2.1921539650938939
16.288,2.2549190596910194
16.292,2.6341112892259844
16.296,2.5937855289666913
16.3,2.269878615916241
16.304,2.2207722465682309
16.308,2.5989888528711163
16.312,2.6367129511781968
16.316,2.3310176717932336
16.32,2.1892270953976549
16.324,2.5547605996835046
16.328,2.6802907888777554
16.332,2.404839829687262
16.336,2.1833733560051769
16.34,2.5046786071034148
16.344,2.7141123942565173
16.348,2.4851661424618214
16.352,2.1999589509505313
16.356,2.4500437061069533
16.36,2.7196409259049688
16.364,2.5495572757790796
16.368,2.2380082570016384
16.372,2.4054902451753151
16.376,2.7251694575534202
16.38,2.614598824584391
16.384,2.2880902495817281
16.388,2.356383875827305
16.392,2.7202913413930219
16.396,2.6851689050381538
16.4,2.365164484916022
16.404,2.3235378936806228
16.408,2.6906974366866052
16.412,2.7362265208503231
16.416,2.4454907976905815
16.42,2.3170337388000917
16.424,2.6734614262531977
16.428,2.798666407703422
16.432,2.5303700188815128
16.436,2.32191185496049
16.44,2.6406154441065155
16.444,2.8396425834507681
16.448,2.6077694619598333
16.452,2.3232126859365962
16.456,2.5622403777961154
16.46,2.8282603124098387
16.464,2.6503716764273122
16.468,2.3323185027693398
16.472,2.4861417656939011
16.476,2.7937882915430237
16.48,2.6559002080757637
16.484,2.301423767086817
16.488,2.3482536822266411
16.492,2.6965511760790832
16.496,2.6256558878812939
16.5,2.2711794468923472
16.504,2.2197966233361512
16.508,2.5937855289666913
16.512,2.6106963316560723
16.516,2.2854885876295157
16.52,2.140771141537698
16.524,2.5098819310078397
16.528,2.61752569428063
16.532,2.3258143478888087
16.536,2.1020714199985377
16.54,2.4292304104892537
16.544,2.6289079653215595
16.548,2.3837013263255358
16.552,2.0906891489576083
16.556,2.353457006131066
16.56,2.626306303369347
16.564,2.4376858118339442
16.568,2.1202830536640249
16.572,2.290366703789914
16.576,2.6198021484888159
16.58,2.4998004909430165
16.584,2.1687390075239819
16.588,2.2396342957217712
16.592,2.59768802189501
16.596,2.5411018744343892
16.6,2.2084143522952218
16.604,2.1739423314284068
16.608,2.5489068602910265
16.612,2.5749234798131511
16.616,2.2627240455476567
16.62,2.1332913634250872
16.624,2.4910198818542995
16.628,2.6009400993352756
16.632,2.3206110239843838
16.636,2.1102016135992017
16.64,2.4263035407930147
16.644,2.6194769407447893
16.648,2.385002157301642
16.652,2.1170309762237594
16.656,2.3814248721173499
16.66,2.6464691834989935
16.664,2.4542714067792986
16.668,2.1352426098892465
16.672,2.3111799994076136
16.676,2.6383389898983296
16.68,2.508255892287707
16.684,2.1690642152680084
16.688,2.2467888660903554
16.692,2.6155744478164706
16.696,2.5560614306596108
16.7,2.2178453768719919
16.704,2.186950641189469
16.708,2.5684193249326199
16.712,2.5911838670144789
16.716,2.2773583940288518
16.72,2.1479257119062822
16.724,2.519963371072663
16.728,2.6266315111133736
16.732,2.3391478653938975
16.736,2.1248359620803967
16.74,2.4532957835472189
16.744,2.6376885744102765
16.748,2.3863029882777482
16.752,2.1066243284149095
16.756,2.3824004953494295
16.76,2.646143975754967
16.764,2.4490680828748737
16.768,2.1303644937288482
16.772,2.3193101930082776
16.776,2.6441927292908076
16.78,2.5066298535675742
16.784,2.1729667081963271
16.788,2.2581711371312849
16.792,2.6240298491611611
16.796,2.5563866384036373
16.8,2.2158941304078326
16.804,2.1911783418618143
16.808,2.5781755572534166
16.812,2.5928099057346117
16.816,2.2754071475646924
16.82,2.1612592294113711
16.824,2.5476060293149203
16.828,2.6458187680109404
16.832,2.3495545132027473
16.836,2.1443484267219901
16.84,2.4926459205744322
16.844,2.6884209824784193
16.848,2.4445151744585019
16.852,2.1703650462441146
16.856,2.4376858118339442
16.86,2.6877705669903662
16.864,2.4757351178850513
16.868,2.1492265428823885
16.872,2.3355705802096054
16.876,2.657851454539923
16.88,2.5163860858883709
16.884,2.1739423314284068
16.888,2.2601223835954443
16.892,2.6282575498335063
16.896,2.5628907932841685
16.9,2.2253251549846027
16.904,2.2106908065034077
16.908,2.6015905148233287
16.912,2.6123223703762051
16.916,2.287439834093675
16.92,2.1589827752031852
16.924,2.5160608781443443
16.928,2.5791511804854963
16.932,2.2672769539640285
16.936,2.0962176806060597
16.94,2.5310204343695659
16.944,2.8867977063346189
16.948,2.8526508932118304
16.952,2.7846824747102801
16.956,3.1417605776514392
16.96,3.4572120893571991
16.964,3.212330658105202
16.968,2.5798015959735494
16.972,2.4035389987111557
16.976,2.5508581067551859
16.98,2.3719938475405797
16.984,2.0552415048587136
16.988,2.1905279263737611
16.992,2.5840292966458946
16.996,2.5407766666903626
17,2.218495792360045
17.004,2.2077639368071686
17.008,2.5755738953012042
17.012,2.5824032579257619
17.016,2.266951746220002
17.02,2.1547550745308399
17.024,2.5225650330248754
17.028,2.6106963316560723
17.032,2.3254891401447821
17.036,2.1368686486093793
17.04,2.4864669734379277
17.044,2.6685833100927994
17.048,2.4211002168885898
17.052,2.1508525816025212
17.056,2.4318320724414662
17.06,2.6926486831507646
17.064,2.4949223747826181
17.068,2.1827229405171238
17.072,2.3830509108374827
17.076,2.6968763838231098
17.08,2.5550858074275311
17.084,2.2191462078480981
17.088,2.3134564536157995
17.092,2.6760630882054102
17.096,2.6110215394000988
17.1,2.2809356792131439
17.104,2.2741063165885862
17.108,2.6545993770996574
17.112,2.6663068558846135
17.116,2.3580099145474378
17.12,2.2532930209708866
17.124,2.6253306801372673
17.128,2.7183400949288625
17.132,2.4318320724414662
17.136,2.2425611654180102
17.14,2.5840292966458946
17.144,2.7677716720208991
17.148,2.5329716808337253
17.152,2.2783340172609314
17.156,2.551508522243239
17.16,2.8041949393518735
17.164,2.614598824584391
17.168,2.3115052071516402
17.172,2.5004509064310696
17.176,2.8093982632562984
17.18,2.6731362185091712
17.184,2.3430503583222162
17.188,2.4331329034175724
17.192,2.7713489572051913
17.196,2.6793151656456757
17.2,2.3267899711208884
17.204,2.3017489748308435
17.208,2.654924584843684
17.212,2.6354121202020906
17.216,2.2955700276943389
17.22,2.1758935778925661
17.224,2.5339473040658049
17.228,2.6064686309837271
17.232,2.3037002212950028
17.236,2.1040226664626971
17.24,2.4370353963458911
17.244,2.5973628141509835
17.248,2.3355705802096054
17.252,2.0744287617562804
17.256,2.3583351222914644
17.26,2.6087450851919129
17.264,2.4032137909671292
17.268,2.089388317981502
17.272,2.2952448199503124
17.276,2.6051678000076208
17.28,2.4588243151956704
17.284,2.1277628317766357
17.288,2.2432115809060633
17.292,2.6022409303113818
17.296,2.5254919027211145
17.3,2.1931295883259736
17.304,2.1950808347901329
17.308,2.5677689094445668
17.312,2.5625655855401419
17.316,2.2480896970664617
17.32,2.1534542435547337
17.324,2.5206137865607161
17.328,2.6067938387277536
17.332,2.3108547916635871
17.336,2.1186570149438921
17.34,2.4448403822025284
17.344,2.611671954888152
17.348,2.3602863687556237
17.352,2.1095511981111486
17.356,2.3957340128545184
17.36,2.6402902363624889
17.364,2.4279295795131475
17.368,2.1189822226879187
17.372,2.3310176717932336
17.376,2.6428918983147014
17.38,2.4900442586222198
17.384,2.155405490018893
17.388,2.2702038236602675
17.392,2.6230542259290814
17.396,2.5401262512023095
17.4,2.2061378980870359
17.404,2.215568922663806
17.408,2.5957367754308507
17.412,2.583053673413815
17.416,2.2555694751790725
17.42,2.1612592294113711
17.424,2.5463051983388141
17.428,2.6194769407447893
17.432,2.3176841542881448
17.436,2.1306897014728747
17.44,2.4789871953253169
17.444,2.6324852505058516
17.448,2.3658149004040752
17.452,2.1095511981111486
17.456,2.4100431535916869
17.46,2.6532985461235512
17.464,2.434108526649652
17.468,2.1245107543363702
17.472,2.3472780589945614
17.476,2.6536237538675778
17.48,2.488418219902087
17.484,2.1505273738584947
17.488,2.2754071475646924
17.492,2.6399650286184624
17.496,2.5463051983388141
17.5,2.2054874825989828
17.504,2.2194714155921247
17.508,2.6038669690315146
17.512,2.583053673413815
17.516,2.2464636583463289
17.52,2.1550802822748665
17.524,2.5424027054104954
17.528,2.6207777717208955
17.532,2.3222370627045166
17.536,2.1430475957458839
17.54,2.4861417656939011
17.544,2.6471195989870466
17.548,2.3980104670627043
17.552,2.1570315287390258
17.556,2.4506941215950064
17.56,2.6867949437582865
17.564,2.4633772236120421
17.568,2.1521534125786275
17.572,2.3619124074757565
17.576,2.6591522855160292
17.58,2.4893938431341667
17.584,2.1547550745308399
17.588,2.2763827707967721
17.592,2.6334608737379313
17.596,2.5388254202262033
17.6,2.1993085354624782
17.604,2.2197966233361512
17.608,2.6041921767755412
17.612,2.5820780501817353
17.616,2.2562198906671256
17.62,2.1778448243567254
17.624,2.5619151700520888
17.628,2.6217533949529752
17.632,2.3098791684315074
17.636,2.1111772368312813
17.64,2.4432143434823956
17.644,2.5798015959735494
17.648,2.3596359532675706
17.652,2.2318293098651338
17.656,2.663705193932401
17.66,3.0763938211021014
17.664,3.08029631403042
17.668,2.9388309453788679
17.672,3.1459882783237845
17.676,3.2728192984941415
17.68,2.7882597598945722
17.684,2.1768692011246458
17.688,2.2119916374795139
17.692,2.5586630926118232
17.696,2.4877678044140339
17.7,2.189877510885708
17.704,2.2402847112098243
17.708,2.6285827575775329
17.712,2.6058182154956739
17.716,2.2715046546363737
17.72,2.1817473172850441
17.724,2.5638664165162481
17.728,2.6289079653215595
17.732,2.3267899711208884
17.736,2.1528038280666806
17.74,2.5089063077757601
17.744,2.6611035319801886
17.748,2.3960592205985449
17.752,2.1534542435547337
17.756,2.453946199035272
17.76,2.6832176585739944
17.764,2.4682553397724405
17.768,2.1755683701485395
17.772,2.4012625445029698
17.776,2.6998032535193488
17.78,2.5398010434582829
17.784,2.215568922663806
17.788,2.3459772280184552
17.792,2.6985024225432426
17.796,2.603541761287488
17.8,2.2705290314042941
17.804,2.2939439889742061
17.808,2.6793151656456757
17.812,2.6594774932600558
17.816,2.3394730731379241
17.82,2.2682525771961082
17.824,2.6581766622839496
17.828,2.7173644716967829
17.832,2.4155716852401383
17.836,2.2474392815784086
17.84,2.6038669690315146
17.844,2.7472835841472261
17.848,2.4919955050863791
17.852,2.2601223835954443
17.856,2.5609395468200091
17.86,2.7882597598945722
17.864,2.5820780501817353
17.868,2.2939439889742061
17.872,2.5128088007040787
17.876,2.8061461858160328
17.88,2.6532985461235512
17.884,2.34174952734611
17.888,2.4747594946529716
17.892,2.8061461858160328
17.896,2.7017544999835081
17.9,2.3628880307078362
17.904,2.3856525727896951
17.908,2.7336248588981107
17.912,2.6887461902224459
17.916,2.3456520202744287
17.92,2.255894682923099
17.924,2.6084198774478864
17.928,2.6432171060587279
17.932,2.3254891401447821
17.936,2.1528038280666806
17.94,2.4919955050863791
17.944,2.6178509020246565
17.948,2.3466276435065083
17.952,2.1082503671350423
17.956,2.41069356907974
17.96,2.623379433673108
17.964,2.3902054812060669
17.968,2.0932908109098207
17.972,2.3303672563051805
17.976,2.6230542259290814
17.98,2.4484176673868205
17.984,2.1235351311042905
17.988,2.2754071475646924
17.992,2.6282575498335063
17.996,2.5157356704003178
18,2.1732919159403536
18.004,2.218495792360045
18.008,2.6093955006799661
18.012,2.5739478565810714
18.016,2.2370326337695587
18.02,2.1648365145956632
18.024,2.5606143390759826
18.028,2.6074442542158067
18.032,2.2958952354383655
18.036,2.1339417789131403
18.04,2.508255892287707
18.044,2.6396398208744358
18.048,2.3628880307078362
18.052,2.1254863775684498
18.056,2.4467916286666878
18.06,2.6568758313078433
18.064,2.4204498014005367
18.068,2.1235351311042905
18.072,2.3664653158921283
18.076,2.6575262467958964
18.08,2.4812636495335028
18.084,2.1528038280666806
18.088,2.3027245980629232
18.092,2.6474448067310732
18.096,2.5323212653456721
18.1,2.1905279263737611
18.104,2.2370326337695587
18.108,2.6162248633045238
18.112,2.5768747262773104
18.116,2.2480896970664617
18.12,2.1905279263737611
18.124,2.5749234798131511
18.128,2.6139484090963379
18.132,2.3066270909912419
18.136,2.1537794512987603
18.14,2.5102071387518663
18.144,2.6360625356901437
18.148,2.3589855377795175
18.152,2.1267872085445561
18.156,2.4298808259773068
18.16,2.6389894053863827
18.164,2.4126448155438993
18.168,2.1303644937288482
18.172,2.3645140694279689
18.176,2.6445179370348342
18.18,2.4711822094686795
18.184,2.1505273738584947
18.188,2.2991473128786311
18.192,2.6383389898983296
18.196,2.5293943956494331
18.2,2.1963816657662392
18.204,2.2484149048104882
18.208,2.6230542259290814
18.212,2.5807772192056291
18.216,2.2480896970664617
18.22,2.1924791728379205
18.224,2.5876065818301868
18.228,2.6250054723932408
18.232,2.3108547916635871
18.236,2.1625600603874773
18.24,2.5388254202262033
18.244,2.6653312326525338
18.248,2.3846769495576154
18.252,2.152478620322654
18.256,2.4731334559328388
18.26,2.6861445282702334
18.264,2.4702065862365998
18.268,2.1983329122303985
18.272,2.453946199035272
18.276,2.7189905104169156
18.28,2.5215894097927958
18.284,2.1872758489334956
18.288,2.3401234886259772
18.292,2.6757378804613836
18.296,2.5469556138268672
18.3,2.1989833277184516
18.304,2.2542686442029662
18.308,2.6438675215467811
18.312,2.5921594902465586
18.316,2.2516669822507538
18.32,2.2002841586945578
18.324,2.5957367754308507
18.328,2.6298835885536391
18.332,2.3134564536157995
18.336,2.1654869300837163
18.34,2.5378497969941236
18.344,2.6477700144750997
18.348,2.3456520202744287
18.352,2.0845102018211037
18.356,2.4012625445029698
18.36,2.632160042761825
18.364,2.4955727902706712
18.368,2.3602863687556237
18.372,2.7518364925635979
18.376,3.1885904927912634
18.38,3.1989971406001132
18.384,2.993791054119356
18.388,3.045824293163605
18.392,3.0659871732932515
18.396,2.6328104582498781
18.4,2.1586575674591586
18.404,2.1836985637492035
18.408,2.5664680784684606
18.412,2.5508581067551859
18.416,2.2422359576739836
18.42,2.1999589509505313
18.424,2.585980543110054
18.428,2.6194769407447893
18.432,2.3037002212950028
18.436,2.158332359715132
18.44,2.5319960576016456
18.444,2.6480952222191263
18.448,2.3645140694279689
18.452,2.1427223880018573
18.456,2.4760603256290779
18.46,2.6754126727173571
18.464,2.4380110195779707
18.468,2.1550802822748665
18.472,2.4139456465200055
18.476,2.6819168275978882
18.48,2.5007761141750962
18.484,2.18402377149323
18.488,2.3508553441788536
18.492,2.6828924508299679
18.496,2.5684193249326199
18.5,2.238333464745665
18.504,2.2988221051346045
18.508,2.6698841410689056
18.512,2.6243550569051877
18.516,2.3004481438547373
18.52,2.266951746220002
18.524,2.6581766622839496
18.528,2.6897218134545255
18.532,2.379148417909164
18.536,2.2406099189538509
18.54,2.6142736168403644
18.544,2.7319988201779779
18.548,2.4601251461717766
18.552,2.2419107499299571
18.556,2.5697201559087262
18.56,2.764194386836607
18.564,2.5358985505299643
18.568,2.2692282004281878
18.572,2.5332968885777518
18.576,2.8032193161197938
18.58,2.6324852505058516
18.584,2.3241883091686759
18.588,2.4949223747826181
18.592,2.8188292878330685
18.596,2.7027301232155878
18.6,2.3765467559569515
18.604,2.4402874737861566
18.608,2.7941134992870502
18.612,2.73557610536227
18.616,2.3941079741343856
18.62,2.3404486963700037
18.624,2.6988276302872691
18.628,2.706957823887933
18.632,2.3755711327248719
18.636,2.2223982852883637
18.64,2.5684193249326199
18.644,2.6604531164921355
18.648,2.3570342913153581
18.652,2.1251611698244233
18.656,2.445165589946555
18.66,2.6328104582498781
18.664,2.382075287605403
18.668,2.1001201735343784
18.672,2.365164484916022
18.676,2.6266315111133736
18.68,2.4292304104892537
18.684,2.106299120670883
18.688,2.2793096404930111
18.692,2.6025661380554084
18.696,2.4724830404447857
18.7,2.1391451028175652
18.704,2.2136176761996467
18.708,2.5820780501817353
18.712,2.5254919027211145
18.716,2.1963816657662392
18.72,2.1674381765478756
18.724,2.5528093532193452
18.728,2.5729722333489917
18.732,2.2552442674350459
18.736,2.1267872085445561
18.74,2.5069550613116007
18.744,2.6084198774478864
18.748,2.3173589465441182
18.752,2.1040226664626971
18.756,2.4490680828748737
18.76,2.6334608737379313
18.764,2.3859777805337217
18.768,2.112152860063361
18.772,2.387929026997881
18.776,2.6451683525228873
18.78,2.4490680828748737
18.784,2.1293888704967685
18.788,2.3108547916635871
18.792,2.6256558878812939
18.796,2.491345089598326
18.8,2.1599583984352648
18.804,2.2454880351142492
18.808,2.6054930077516474
18.812,2.5388254202262033
18.816,2.20386144387885
18.82,2.1849993947253097
18.824,2.5710209868848324
18.828,2.5820780501817353
18.832,2.2597971758514177
18.836,2.1316653247049544
18.84,2.5105323464958929
18.844,2.6097207084239926
18.848,2.3176841542881448
18.852,2.1085755748790689
18.856,2.4523201603151392
18.86,2.6399650286184624
18.864,2.3902054812060669
18.868,2.1157301452476531
18.872,2.4006121290149167
18.876,2.6633799861883745
18.88,2.4584991074516438
18.884,2.1365434408653527
18.888,2.3238631014246494
18.892,2.6441927292908076
18.896,2.494271959294565
18.9,2.155405490018893
18.904,2.2506913590186741
18.908,2.626306303369347
18.912,2.5534597687073983
18.916,2.2139428839436732
18.92,2.1921539650938939
18.924,2.5840292966458946
18.928,2.5895578282943461
18.932,2.261748422315577
18.936,2.1423971802578308
18.94,2.5225650330248754
18.944,2.6158996555604972
18.948,2.3209362317284103
18.952,2.1147545220155735
18.956,2.45979993842775
18.96,2.6415910673385952
18.964,2.3866281960217748
18.968,2.120933469152078
18.972,2.4054902451753151
18.976,2.6620791552122682
18.98,2.4584991074516438
18.984,2.1521534125786275
18.988,2.3648392771719955
18.992,2.6913478521746583
18.996,2.5524841454753187
19,2.2162193381518591
19.004,2.3069522987352684
19.008,2.6539489616116043
19.012,2.5684193249326199
19.016,2.2246747394965496
19.02,2.206788313575089
19.024,2.5710209868848324
19.028,2.5674437017005403
19.032,2.250040943530621
19.036,2.1440232189779636
19.04,2.5212642020487692
19.044,2.6165500710485503
19.048,2.3284160098410212
19.052,2.1313401169609278
19.056,2.4708570017246529
19.06,2.6438675215467811
19.064,2.3898802734620403
19.068,2.1215838846401311
19.072,2.3947583896224387
19.076,2.6217533949529752
19.08,2.3859777805337217
19.084,2.1059739129268564
19.088,2.4113439845677931
19.092,2.8750902275496628
19.096,2.9261478433618322
