Timestamp,2/29/2024 10:41:25 AM
Interval,0.004
Channel name,"Input 0"
Unit,"V"
0,2.3986608825507574
0.004,2.3989860902947839
0.008,2.387929026997881
0.012,2.3885794424859341
0.016,2.4025633754790761
0.02,2.4064658684073947
0.024,2.3986608825507574
0.028,2.3905306889500935
0.032,2.3957340128545184
0.036,2.4064658684073947
0.04,2.4032137909671292
0.044,2.3989860902947839
0.048,2.4097179458476603
0.052,2.4230514633527491
0.056,2.4227262556087226
0.06,2.4067910761514213
0.064,2.4019129599910229
0.068,2.4090675303596072
0.072,2.4097179458476603
0.076,2.4074414916394744
0.08,2.4110187768237665
0.084,2.4132952310319524
0.088,2.4090675303596072
0.092,2.3957340128545184
0.096,2.3993112980388105
0.1,2.4119944000558462
0.104,2.4230514633527491
0.108,2.4175229317042977
0.112,2.4155716852401383
0.116,2.4302060337213334
0.12,2.4529705758031923
0.124,2.4633772236120421
0.128,2.4672797165403608
0.132,2.4711822094686795
0.136,2.4669545087963343
0.14,2.4519949525711127
0.144,2.4389866428100504
0.148,2.4370353963458911
0.152,2.4344337343936786
0.156,2.4237018788408022
0.16,2.4084171148715541
0.164,2.4103683613357134
0.168,2.4220758401206695
0.172,2.4184985549363773
0.176,2.41069356907974
0.18,2.4207750091445632
0.184,2.4302060337213334
0.188,2.4298808259773068
0.192,2.4201245936565101
0.196,2.41069356907974
0.2,2.4064658684073947
0.204,2.3778475869330578
0.208,2.3456520202744287
0.212,2.3638636539399158
0.216,2.4679301320284139
0.22,2.6334608737379313
0.224,2.8259838582016528
0.228,3.0354176453547552
0.232,3.2481035099481232
0.236,3.4042032270808704
0.24,3.398674695432419
0.244,3.1401345389313065
0.248,2.7024049154715613
0.252,2.3980104670627043
0.256,2.2981716896465514
0.26,2.2884154573257547
0.264,2.3124808303837199
0.268,2.3528065906430129
0.272,2.3895550657180138
0.276,2.4058154529193416
0.28,2.4204498014005367
0.284,2.4350841498817317
0.288,2.4337833189056255
0.292,2.4289052027452271
0.296,2.4279295795131475
0.3,2.4331329034175724
0.304,2.4337833189056255
0.308,2.4259783330489881
0.312,2.4263035407930147
0.316,2.4383362273219973
0.32,2.4415883047622629
0.324,2.431181656953413
0.328,2.422401047864696
0.332,2.4367101886018645
0.336,2.4565478609874845
0.34,2.45979993842775
0.344,2.4565478609874845
0.348,2.4624016003799625
0.352,2.4672797165403608
0.356,2.4646780545881484
0.36,2.4594747306837235
0.364,2.4646780545881484
0.368,2.4731334559328388
0.372,2.4695561707485467
0.376,2.4669545087963343
0.38,2.4793124030693434
0.384,2.5011013219191227
0.388,2.5076054767996538
0.392,2.5043533993593883
0.396,2.5105323464958929
0.4,2.5261423182091676
0.404,2.5349229272978846
0.408,2.5358985505299643
0.412,2.5407766666903626
0.416,2.5635412087722216
0.42,2.5827284656697884
0.424,2.5856553353660274
0.428,2.5989888528711163
0.432,2.6198021484888159
0.436,2.6315096272737719
0.44,2.6308592117857188
0.444,2.6308592117857188
0.448,2.6451683525228873
0.452,2.6588270777720027
0.456,2.6562254158197902
0.46,2.6516725074034184
0.464,2.6542741693556309
0.468,2.6585018700279761
0.472,2.6513472996593919
0.476,2.6328104582498781
0.48,2.6149240323284175
0.484,2.6064686309837271
0.488,2.5833788811578415
0.492,2.551508522243239
0.496,2.5235406562569551
0.5,2.5066298535675742
0.504,2.4802880263014231
0.508,2.4477672518987674
0.512,2.4250027098169085
0.516,2.4188237626804039
0.52,2.4064658684073947
0.524,2.3846769495576154
0.528,2.3700426010764204
0.532,2.3641888616839424
0.536,2.3612619919877034
0.54,2.3541074216191191
0.544,2.3489040977146942
0.548,2.3570342913153581
0.552,2.3625628229638096
0.556,2.3560586680832785
0.56,2.3492293054587208
0.564,2.3524813828989863
0.568,2.3641888616839424
0.572,2.362237615219783
0.576,2.3544326293631457
0.58,2.353457006131066
0.584,2.3648392771719955
0.588,2.3664653158921283
0.592,2.3599611610115971
0.596,2.3573594990593847
0.6,2.3654896926600486
0.604,2.3674409391242079
0.608,2.3619124074757565
0.612,2.3573594990593847
0.616,2.3648392771719955
0.62,2.3700426010764204
0.624,2.3700426010764204
0.628,2.3684165623562876
0.632,2.3723190552846063
0.636,2.3745955094927922
0.64,2.3726442630286328
0.644,2.3690669778443407
0.648,2.3765467559569515
0.652,2.3859777805337217
0.656,2.3775223791890312
0.66,2.3654896926600486
0.664,2.3684165623562876
0.668,2.3853273650456686
0.672,2.3872786115098279
0.676,2.3810996643733233
0.68,2.3863029882777482
0.684,2.3941079741343856
0.688,2.3911811044381466
0.692,2.3810996643733233
0.696,2.3830509108374827
0.7,2.3915063121821731
0.704,2.3993112980388105
0.708,2.396709636086598
0.712,2.3947583896224387
0.716,2.4006121290149167
0.72,2.4035389987111557
0.724,2.3993112980388105
0.728,2.3941079741343856
0.732,2.3999617135268636
0.736,2.4061406606633682
0.74,2.4006121290149167
0.744,2.3895550657180138
0.748,2.39085589669412
0.752,2.4002869212708902
0.756,2.3999617135268636
0.76,2.3915063121821731
0.764,2.3980104670627043
0.768,2.4064658684073947
0.772,2.3999617135268636
0.776,2.3902054812060669
0.78,2.3924819354142528
0.784,2.4015877522469964
0.788,2.4028885832231026
0.792,2.3957340128545184
0.796,2.3989860902947839
0.8,2.4116691923118196
0.804,2.4152464774961118
0.808,2.4061406606633682
0.812,2.4019129599910229
0.816,2.4074414916394744
0.82,2.4080919071275275
0.824,2.4035389987111557
0.828,2.3999617135268636
0.832,2.4045146219432354
0.836,2.4093927381036337
0.84,2.4087423226155806
0.844,2.4054902451753151
0.848,2.4126448155438993
0.852,2.4158968929841649
0.856,2.4097179458476603
0.86,2.4051650374312885
0.864,2.4129700232879259
0.868,2.4233766710967757
0.872,2.4269539562810678
0.876,2.422401047864696
0.88,2.4217506323766429
0.884,2.4308564492093865
0.888,2.4328076956735458
0.892,2.4243522943288554
0.896,2.4243522943288554
0.9,2.431181656953413
0.904,2.428254787257174
0.908,2.4162221007281914
0.912,2.4123196077998728
0.916,2.422401047864696
0.92,2.4315068646974396
0.924,2.4298808259773068
0.928,2.4292304104892537
0.932,2.4386614350660238
0.936,2.4461412131786346
0.94,2.439311850554077
0.944,2.4347589421377052
0.948,2.4324824879295193
0.952,2.4370353963458911
0.956,2.4305312414653599
0.96,2.4266287485370412
0.964,2.4331329034175724
0.968,2.4428891357383691
0.972,2.442238720250316
0.976,2.4380110195779707
0.98,2.4467916286666878
0.984,2.4611007694038562
0.988,2.4591495229396969
0.992,2.4464664209226612
0.996,2.4513445370830595
1,2.4731334559328388
1.004,2.4897190508781932
1.008,2.4903694663662463
1.012,2.4812636495335028
1.016,2.4828896882536355
1.02,2.4793124030693434
1.024,2.4591495229396969
1.028,2.4409378892742097
1.032,2.4402874737861566
1.036,2.4409378892742097
1.04,2.4334581111615989
1.044,2.4305312414653599
1.048,2.4380110195779707
1.052,2.4461412131786346
1.056,2.4432143434823956
1.06,2.4305312414653599
1.064,2.4337833189056255
1.068,2.4438647589704487
1.072,2.4402874737861566
1.076,2.4318320724414662
1.08,2.4246775020728819
1.084,2.407766699383501
1.088,2.3758963404688984
1.092,2.3615871997317299
1.096,2.4197993859124836
1.1,2.5749234798131511
1.104,2.7680968797649257
1.108,2.9723273430136032
1.112,3.1830619611428119
1.116,3.3606253893813118
1.12,3.4308702620910481
1.124,3.284201569535071
1.128,2.8926514457270969
1.132,2.5176869168644771
1.136,2.3567090835713316
1.14,2.3241883091686759
1.144,2.3323185027693398
1.148,2.3716686397965532
1.152,2.4207750091445632
1.156,2.4376858118339442
1.16,2.439311850554077
1.164,2.4448403822025284
1.168,2.4490680828748737
1.172,2.4506941215950064
1.176,2.4454907976905815
1.18,2.4454907976905815
1.184,2.4565478609874845
1.188,2.4591495229396969
1.192,2.448092459642794
1.196,2.445165589946555
1.2,2.451019329339033
1.204,2.453946199035272
1.208,2.4519949525711127
1.212,2.4581738997076172
1.216,2.4747594946529716
1.22,2.4828896882536355
1.224,2.4773611566051841
1.228,2.4711822094686795
1.232,2.4783367798372637
1.236,2.4900442586222198
1.24,2.4903694663662463
1.244,2.4903694663662463
1.248,2.5007761141750962
1.252,2.5147600471682381
1.256,2.5154104626562912
1.26,2.5131340084481053
1.264,2.5206137865607161
1.268,2.5319960576016456
1.272,2.5398010434582829
1.276,2.5398010434582829
1.28,2.5420774976664688
1.284,2.545654782850761
1.288,2.5524841454753187
1.292,2.5524841454753187
1.296,2.5606143390759826
1.3,2.5778503495093901
1.304,2.5908586592704523
1.308,2.5931351134786382
1.312,2.6022409303113818
1.316,2.6194769407447893
1.32,2.6318348350177985
1.324,2.6334608737379313
1.328,2.6402902363624889
1.332,2.6545993770996574
1.336,2.6627295707003213
1.34,2.6575262467958964
1.344,2.6523229228914715
1.348,2.6542741693556309
1.352,2.6545993770996574
1.356,2.6396398208744358
1.36,2.6162248633045238
1.364,2.5954115676868241
1.368,2.5778503495093901
1.372,2.551508522243239
1.376,2.5186625400965568
1.38,2.4965484135027509
1.384,2.4841905192297418
1.388,2.45979993842775
1.392,2.4250027098169085
1.396,2.4012625445029698
1.4,2.3963844283425715
1.404,2.387929026997881
1.408,2.3654896926600486
1.412,2.3485788899706677
1.416,2.3482536822266411
1.42,2.3443511892983224
1.424,2.3310176717932336
1.428,2.3251639324007556
1.432,2.3339445414894726
1.436,2.3384974499058444
1.44,2.3339445414894726
1.444,2.3287412175850477
1.448,2.3300420485611539
1.452,2.3329689182573929
1.456,2.3245135169127025
1.46,2.3154077000799589
1.464,2.3141068691038527
1.468,2.3238631014246494
1.472,2.3271151788649149
1.476,2.3232126859365962
1.48,2.3261395556328353
1.484,2.3410991118580569
1.488,2.3472780589945614
1.492,2.3362209956976585
1.496,2.3319932950253133
1.5,2.3433755660662428
1.504,2.347603266738588
1.508,2.3345949569775257
1.512,2.3323185027693398
1.516,2.344676397042349
1.52,2.3502049286908004
1.524,2.3420747350901365
1.528,2.3349201647215523
1.532,2.3427251505781896
1.536,2.3485788899706677
1.54,2.3459772280184552
1.544,2.3443511892983224
1.548,2.3602863687556237
1.552,2.3752459249808453
1.556,2.3693921855883673
1.56,2.3632132384518627
1.564,2.3664653158921283
1.568,2.3775223791890312
1.572,2.373294678516686
1.576,2.3628880307078362
1.58,2.3612619919877034
1.584,2.3713434320525266
1.588,2.3729694707726594
1.592,2.3671157313801814
1.596,2.3723190552846063
1.6,2.3807744566292968
1.604,2.385002157301642
1.608,2.3807744566292968
1.612,2.3781727946770843
1.616,2.382075287605403
1.62,2.3830509108374827
1.624,2.3710182243085001
1.628,2.3615871997317299
1.632,2.3697173933323938
1.636,2.3745955094927922
1.64,2.3752459249808453
1.644,2.3745955094927922
1.648,2.379148417909164
1.652,2.385002157301642
1.656,2.382075287605403
1.66,2.3768719637009781
1.664,2.3863029882777482
1.668,2.3941079741343856
1.672,2.3846769495576154
1.676,2.3716686397965532
1.68,2.3781727946770843
1.684,2.3963844283425715
1.688,2.4006121290149167
1.692,2.3947583896224387
1.696,2.3993112980388105
1.7,2.4074414916394744
1.704,2.4067910761514213
1.708,2.399636505782837
1.712,2.3941079741343856
1.716,2.4009373367589433
1.72,2.4087423226155806
1.724,2.4045146219432354
1.728,2.4022381677350495
1.732,2.4103683613357134
1.736,2.4178481394483242
1.74,2.4123196077998728
1.744,2.4067910761514213
1.748,2.4171977239602711
1.752,2.431181656953413
1.756,2.4318320724414662
1.76,2.425327917560935
1.764,2.4259783330489881
1.768,2.431181656953413
1.772,2.4305312414653599
1.776,2.4227262556087226
1.78,2.4292304104892537
1.784,2.4367101886018645
1.788,2.4399622660421301
1.792,2.4347589421377052
1.796,2.4347589421377052
1.8,2.4412630970182363
1.804,2.4435395512264222
1.808,2.4302060337213334
1.812,2.4263035407930147
1.816,2.4318320724414662
1.82,2.4383362273219973
1.824,2.4318320724414662
1.828,2.4279295795131475
1.832,2.4399622660421301
1.836,2.4506941215950064
1.84,2.448092459642794
1.844,2.442238720250316
1.848,2.4506941215950064
1.852,2.4731334559328388
1.856,2.485491350205848
1.86,2.4906946741102729
1.864,2.4939467515505385
1.868,2.4962232057587244
1.872,2.4809384417894762
1.876,2.4617511848919094
1.88,2.4536209912912454
1.884,2.4532957835472189
1.888,2.4464664209226612
1.892,2.4344337343936786
1.896,2.4324824879295193
1.9,2.439311850554077
1.904,2.4432143434823956
1.908,2.4389866428100504
1.912,2.4363849808578379
1.916,2.4497184983629268
1.92,2.4552470300113782
1.924,2.4516697448270861
1.928,2.4402874737861566
1.932,2.439311850554077
1.936,2.4285799950012006
1.94,2.3931323509023059
1.944,2.3645140694279689
1.948,2.3970348438306246
1.952,2.5089063077757601
1.956,2.6760630882054102
1.96,2.8682608649251051
1.964,3.0861500534228981
1.968,3.2988359180162661
1.972,3.4298946388589684
1.976,3.3882680476235691
1.98,3.1154187503852881
1.984,2.6949251373589505
1.988,2.4217506323766429
1.992,2.3371966189297382
1.996,2.3355705802096054
2,2.3645140694279689
2.004,2.4038642064551823
2.008,2.4334581111615989
2.012,2.4500437061069533
2.016,2.4646780545881484
2.02,2.4689057552604936
2.024,2.4571982764755376
2.028,2.4523201603151392
2.032,2.45979993842775
2.036,2.4620763926359359
2.04,2.453946199035272
2.044,2.445165589946555
2.048,2.4497184983629268
2.052,2.4633772236120421
2.056,2.465653677820228
2.06,2.4646780545881484
2.064,2.4695561707485467
2.068,2.4806132340454496
2.072,2.4815888572775293
2.076,2.476710741117131
2.08,2.4793124030693434
2.084,2.4867921811819542
2.088,2.4874425966700073
2.092,2.4815888572775293
2.096,2.4819140650215559
2.1,2.4919955050863791
2.104,2.5014265296631493
2.108,2.4988248677109368
2.112,2.4998004909430165
2.116,2.5163860858883709
2.12,2.5261423182091676
2.124,2.5267927336972207
2.128,2.5297196033934597
2.132,2.5378497969941236
2.136,2.5482564448029734
2.14,2.5534597687073983
2.144,2.5583378848677967
2.148,2.5745982720691245
2.152,2.5876065818301868
2.156,2.5937855289666913
2.16,2.5937855289666913
2.164,2.614598824584391
2.168,2.635086912458064
2.172,2.6484204299631529
2.176,2.646143975754967
2.18,2.6545993770996574
2.184,2.6692337255808525
2.188,2.6754126727173571
2.192,2.6754126727173571
2.196,2.6809412043658085
2.2,2.6884209824784193
2.204,2.6838680740620475
2.208,2.6656564403965604
2.212,2.6477700144750997
2.216,2.6399650286184624
2.22,2.6250054723932408
2.224,2.5937855289666913
2.228,2.5583378848677967
2.232,2.5375245892500971
2.236,2.5176869168644771
2.24,2.4962232057587244
2.244,2.4734586636768654
2.248,2.4611007694038562
2.252,2.4464664209226612
2.256,2.4227262556087226
2.26,2.3973600515746512
2.264,2.3885794424859341
2.268,2.3973600515746512
2.272,2.3905306889500935
2.276,2.3745955094927922
2.28,2.3716686397965532
2.284,2.3788232101651374
2.288,2.3824004953494295
2.292,2.379148417909164
2.296,2.3768719637009781
2.3,2.3814248721173499
2.304,2.3771971714450046
2.308,2.3664653158921283
2.312,2.3606115764996503
2.316,2.3671157313801814
2.32,2.3788232101651374
2.324,2.3794736256531905
2.328,2.3749207172368187
2.332,2.3814248721173499
2.336,2.3853273650456686
2.34,2.3781727946770843
2.344,2.3742703017487656
2.348,2.3837013263255358
2.352,2.3892298579739872
2.356,2.3797988333972171
2.36,2.3716686397965532
2.364,2.3824004953494295
2.368,2.3960592205985449
2.372,2.3947583896224387
2.376,2.3827257030934561
2.38,2.3784980024211109
2.384,2.3872786115098279
2.388,2.3954088051104918
2.392,2.3954088051104918
2.396,2.4006121290149167
2.4,2.4097179458476603
2.404,2.4087423226155806
2.408,2.4012625445029698
2.412,2.4041894141992088
2.416,2.4116691923118196
2.42,2.404839829687262
2.424,2.3944331818784121
2.428,2.3960592205985449
2.432,2.4113439845677931
2.436,2.4211002168885898
2.44,2.416547308472218
2.444,2.4064658684073947
2.448,2.4067910761514213
2.452,2.4149212697520852
2.456,2.4207750091445632
2.46,2.4162221007281914
2.464,2.4178481394483242
2.468,2.4214254246326163
2.472,2.422401047864696
2.476,2.4188237626804039
2.48,2.4243522943288554
2.484,2.4305312414653599
2.488,2.4237018788408022
2.492,2.4116691923118196
2.496,2.4126448155438993
2.5,2.4243522943288554
2.504,2.4256531253049616
2.508,2.4211002168885898
2.512,2.4272791640250944
2.516,2.4357345653697848
2.52,2.4360597731138114
2.524,2.4246775020728819
2.528,2.4175229317042977
2.532,2.4246775020728819
2.536,2.4298808259773068
2.54,2.4292304104892537
2.544,2.4243522943288554
2.548,2.4321572801854927
2.552,2.442238720250316
2.556,2.4380110195779707
2.56,2.4204498014005367
2.564,2.422401047864696
2.568,2.4308564492093865
2.572,2.4318320724414662
2.576,2.431181656953413
2.58,2.4412630970182363
2.584,2.4474420441547409
2.588,2.445165589946555
2.592,2.4331329034175724
2.596,2.4292304104892537
2.6,2.4370353963458911
2.604,2.4373606040899176
2.608,2.4324824879295193
2.612,2.4370353963458911
2.616,2.4545966145233251
2.62,2.4565478609874845
2.624,2.4425639279943425
2.628,2.4376858118339442
2.632,2.4412630970182363
2.636,2.4402874737861566
2.64,2.4259783330489881
2.644,2.4201245936565101
2.648,2.4376858118339442
2.652,2.4523201603151392
2.656,2.4545966145233251
2.66,2.4549218222673517
2.664,2.4594747306837235
2.668,2.465653677820228
2.672,2.4607755616598297
2.676,2.4523201603151392
2.68,2.4614259771478828
2.684,2.4793124030693434
2.688,2.494271959294565
2.692,2.4919955050863791
2.696,2.4893938431341667
2.7,2.4838653114857152
2.704,2.4750847023969982
2.708,2.4624016003799625
2.712,2.4526453680591658
2.716,2.4571982764755376
2.72,2.4607755616598297
2.724,2.4571982764755376
2.728,2.4594747306837235
2.732,2.4754099101410247
2.736,2.4721578327007592
2.74,2.4532957835472189
2.744,2.4383362273219973
2.748,2.4529705758031923
2.752,2.4776863643492106
2.756,2.4760603256290779
2.76,2.4487428751308471
2.764,2.4285799950012006
2.768,2.4149212697520852
2.772,2.4237018788408022
2.776,2.5024021528952289
2.78,2.663705193932401
2.784,2.8637079565087333
2.788,3.0812719372624997
2.792,3.2855024005111773
2.796,3.4471306492923759
2.8,3.4656674907018896
2.804,3.2224120981700253
2.808,2.7651700100686867
2.812,2.4243522943288554
2.816,2.3157329078239854
2.82,2.3137816613598261
2.824,2.3212614394724369
2.828,2.3479284744826145
2.832,2.3993112980388105
2.836,2.4438647589704487
2.84,2.4584991074516438
2.844,2.462726808123989
2.848,2.4750847023969982
2.852,2.4763855333731044
2.856,2.4689057552604936
2.86,2.465653677820228
2.864,2.476710741117131
2.868,2.4890686353901401
2.872,2.4903694663662463
2.876,2.4832148959976621
2.88,2.4848409347177949
2.884,2.497198828990804
2.888,2.5014265296631493
2.892,2.4923207128304057
2.896,2.4897190508781932
2.9,2.497198828990804
2.904,2.5059794380795211
2.908,2.5043533993593883
2.912,2.508255892287707
2.916,2.5196381633286364
2.92,2.5238658640009817
2.924,2.5121583852160256
2.928,2.5069550613116007
2.932,2.522890240768902
2.936,2.5388254202262033
2.94,2.5424027054104954
2.944,2.5349229272978846
2.948,2.5407766666903626
2.952,2.5567118461476639
2.956,2.5628907932841685
2.96,2.5645168320043012
2.964,2.5726470256049652
2.968,2.5931351134786382
2.972,2.6045173845195677
2.976,2.6009400993352756
2.98,2.6058182154956739
2.984,2.6185013175127096
2.988,2.6230542259290814
2.992,2.6289079653215595
2.996,2.6448431447788607
3,2.6640304016764276
3.004,2.6757378804613836
3.008,2.680615996621782
3.012,2.6874453592463396
3.016,2.6936243063828442
3.02,2.6858193205262069
3.024,2.6741118417412508
3.028,2.6646808171644807
3.032,2.6624043629562948
3.036,2.6510220919153653
3.04,2.6282575498335063
3.044,2.600614891591249
3.048,2.5765495185332838
3.052,2.5524841454753187
3.056,2.5264675259531941
3.06,2.4910198818542995
3.064,2.4705317939806264
3.068,2.4578486919635907
3.072,2.4370353963458911
3.076,2.4110187768237665
3.08,2.3970348438306246
3.084,2.3866281960217748
3.088,2.3788232101651374
3.092,2.3654896926600486
3.096,2.3638636539399158
3.1,2.370367808820447
3.104,2.3645140694279689
3.108,2.3557334603392519
3.112,2.3531317983870395
3.116,2.3635384461958893
3.12,2.3602863687556237
3.124,2.3537822138750926
3.128,2.353457006131066
3.132,2.3524813828989863
3.136,2.3612619919877034
3.14,2.3589855377795175
3.144,2.3531317983870395
3.148,2.3580099145474378
3.152,2.3648392771719955
3.156,2.3602863687556237
3.16,2.3508553441788536
3.164,2.3570342913153581
3.168,2.3645140694279689
3.172,2.3498797209467739
3.176,2.3332941260014195
3.18,2.3336193337454461
3.184,2.3414243196020834
3.188,2.3410991118580569
3.192,2.3381722421618178
3.196,2.3440259815542959
3.2,2.3606115764996503
3.204,2.3671157313801814
3.208,2.359310745523544
3.212,2.3609367842436768
3.216,2.3680913546122611
3.22,2.3726442630286328
3.224,2.3619124074757565
3.228,2.3550830448511988
3.232,2.3599611610115971
3.236,2.3641888616839424
3.24,2.365164484916022
3.244,2.359310745523544
3.248,2.3661401081481017
3.252,2.3726442630286328
3.256,2.3664653158921283
3.26,2.3625628229638096
3.264,2.3706930165644735
3.268,2.3775223791890312
3.272,2.3693921855883673
3.276,2.3606115764996503
3.28,2.3606115764996503
3.284,2.3671157313801814
3.288,2.3700426010764204
3.292,2.3648392771719955
3.296,2.3596359532675706
3.3,2.3697173933323938
3.304,2.3706930165644735
3.308,2.3573594990593847
3.312,2.3557334603392519
3.316,2.3700426010764204
3.32,2.3784980024211109
3.324,2.3801240411412437
3.328,2.3775223791890312
3.332,2.3837013263255358
3.336,2.3814248721173499
3.34,2.3677661468682345
3.344,2.3541074216191191
3.348,2.3560586680832785
3.352,2.3706930165644735
3.356,2.3745955094927922
3.36,2.3752459249808453
3.364,2.3810996643733233
3.368,2.3797988333972171
3.372,2.3742703017487656
3.376,2.3677661468682345
3.38,2.3739450940047391
3.384,2.382075287605403
3.388,2.3801240411412437
3.392,2.3687417701003142
3.396,2.3693921855883673
3.4,2.3804492488852702
3.404,2.3895550657180138
3.408,2.3895550657180138
3.412,2.3856525727896951
3.416,2.3957340128545184
3.42,2.3934575586463325
3.424,2.3859777805337217
3.428,2.3853273650456686
3.432,2.3915063121821731
3.436,2.3950835973664653
3.44,2.3921567276702262
3.444,2.3856525727896951
3.448,2.3866281960217748
3.452,2.3902054812060669
3.456,2.3843517418135889
3.46,2.3876038192538545
3.464,2.4012625445029698
3.468,2.4100431535916869
3.472,2.3999617135268636
3.476,2.3905306889500935
3.48,2.4071162838954479
3.484,2.4399622660421301
3.488,2.4591495229396969
3.492,2.4588243151956704
3.496,2.4558974454994313
3.5,2.4519949525711127
3.504,2.4383362273219973
3.508,2.4162221007281914
3.512,2.4028885832231026
3.516,2.4071162838954479
3.52,2.404839829687262
3.524,2.3954088051104918
3.528,2.3915063121821731
3.532,2.3889046502299607
3.536,2.387929026997881
3.54,2.3905306889500935
3.544,2.3931323509023059
3.548,2.4019129599910229
3.552,2.4123196077998728
3.556,2.4067910761514213
3.56,2.3950835973664653
3.564,2.3882542347419076
3.568,2.3697173933323938
3.572,2.3404486963700037
3.576,2.3329689182573929
3.58,2.4015877522469964
3.584,2.5528093532193452
3.588,2.7342752743861638
3.592,2.9323267904983368
3.596,3.1414353699074127
3.6,3.338511262787506
3.604,3.4142846671456937
3.608,3.2565589112928137
3.612,2.8422442454029806
3.616,2.4399622660421301
3.62,2.2679273694520816
3.624,2.2393090879777446
3.628,2.2526426054828335
3.632,2.2945944044622593
3.636,2.3492293054587208
3.64,2.3866281960217748
3.644,2.4051650374312885
3.648,2.4237018788408022
3.652,2.4357345653697848
3.656,2.4298808259773068
3.66,2.4220758401206695
3.664,2.4237018788408022
3.668,2.4344337343936786
3.672,2.4380110195779707
3.676,2.4350841498817317
3.68,2.4367101886018645
3.684,2.4477672518987674
3.688,2.4500437061069533
3.692,2.4412630970182363
3.696,2.4484176673868205
3.7,2.4640276391000953
3.704,2.4721578327007592
3.708,2.4708570017246529
3.712,2.4702065862365998
3.716,2.4835401037416887
3.72,2.4861417656939011
3.724,2.4789871953253169
3.728,2.4802880263014231
3.732,2.4910198818542995
3.736,2.5046786071034148
3.74,2.5007761141750962
3.744,2.5011013219191227
3.748,2.5079306845436804
3.752,2.5245162794890348
3.756,2.5277683569293004
3.76,2.5277683569293004
3.764,2.5401262512023095
3.768,2.557362261635717
3.772,2.5606143390759826
3.776,2.5628907932841685
3.78,2.5778503495093901
3.784,2.5993140606151428
3.788,2.6067938387277536
3.792,2.6077694619598333
3.796,2.6250054723932408
3.8,2.649070845451206
3.804,2.6572010390518699
3.808,2.6516725074034184
3.812,2.6588270777720027
3.816,2.6747622572293039
3.82,2.6828924508299679
3.824,2.6737866339972243
3.828,2.6689085178368259
3.832,2.6728110107651446
3.836,2.6659816481405869
3.84,2.6480952222191263
3.844,2.6269567188574001
3.848,2.6142736168403644
3.852,2.594761152198771
3.856,2.5612647545640357
3.86,2.5238658640009817
3.864,2.5011013219191227
3.868,2.4845157269737683
3.872,2.4617511848919094
3.876,2.4415883047622629
3.88,2.4298808259773068
3.884,2.4233766710967757
3.888,2.4162221007281914
3.892,2.4002869212708902
3.896,2.387929026997881
3.9,2.3889046502299607
3.904,2.3866281960217748
3.908,2.3745955094927922
3.912,2.370367808820447
3.916,2.3758963404688984
3.92,2.3778475869330578
3.924,2.3697173933323938
3.928,2.3661401081481017
3.932,2.3723190552846063
3.936,2.3742703017487656
3.94,2.3736198862607125
3.944,2.3736198862607125
3.948,2.3794736256531905
3.952,2.3895550657180138
3.956,2.3866281960217748
3.96,2.3846769495576154
3.964,2.3963844283425715
3.968,2.4002869212708902
3.972,2.3976852593186777
3.976,2.3921567276702262
3.98,2.3947583896224387
3.984,2.4045146219432354
3.988,2.4028885832231026
3.992,2.3960592205985449
3.996,2.3976852593186777
4,2.4025633754790761
4.004,2.3999617135268636
4.008,2.3898802734620403
4.012,2.3853273650456686
4.016,2.3905306889500935
4.02,2.3902054812060669
4.024,2.3856525727896951
4.028,2.3843517418135889
4.032,2.3957340128545184
4.036,2.4012625445029698
4.04,2.3983356748067308
4.044,2.3976852593186777
4.048,2.404839829687262
4.052,2.41069356907974
4.056,2.4087423226155806
4.06,2.4074414916394744
4.064,2.4162221007281914
4.068,2.422401047864696
4.072,2.4191489704244304
4.076,2.4152464774961118
4.08,2.4197993859124836
4.084,2.4272791640250944
4.088,2.4250027098169085
4.092,2.4158968929841649
4.096,2.4175229317042977
4.1,2.4227262556087226
4.104,2.4227262556087226
4.108,2.4158968929841649
4.112,2.4071162838954479
4.116,2.413620438775979
4.12,2.416547308472218
4.124,2.4110187768237665
4.128,2.4009373367589433
4.132,2.4074414916394744
4.136,2.413620438775979
4.14,2.4064658684073947
4.144,2.3993112980388105
4.148,2.4064658684073947
4.152,2.4142708542640321
4.156,2.4132952310319524
4.16,2.41069356907974
4.164,2.4201245936565101
4.168,2.4214254246326163
4.172,2.4103683613357134
4.176,2.4035389987111557
4.18,2.4045146219432354
4.184,2.413620438775979
4.188,2.4162221007281914
4.192,2.4080919071275275
4.196,2.4145960620080587
4.2,2.4250027098169085
4.204,2.4259783330489881
4.208,2.4211002168885898
4.212,2.4207750091445632
4.216,2.4250027098169085
4.22,2.4207750091445632
4.224,2.4132952310319524
4.228,2.4175229317042977
4.232,2.4315068646974396
4.236,2.4383362273219973
4.24,2.4295556182332803
4.244,2.4191489704244304
4.248,2.4240270865848288
4.252,2.4289052027452271
4.256,2.4237018788408022
4.26,2.4152464774961118
4.264,2.419474178168457
4.268,2.4279295795131475
4.272,2.4259783330489881
4.276,2.4243522943288554
4.28,2.4344337343936786
4.284,2.4474420441547409
4.288,2.448092459642794
4.292,2.451019329339033
4.296,2.465653677820228
4.3,2.488418219902087
4.304,2.4975240367348306
4.308,2.4822392727655824
4.312,2.4711822094686795
4.316,2.4744342869089451
4.32,2.4669545087963343
4.324,2.4448403822025284
4.328,2.4305312414653599
4.332,2.4302060337213334
4.336,2.4324824879295193
4.34,2.4302060337213334
4.344,2.4250027098169085
4.348,2.4305312414653599
4.352,2.4399622660421301
4.356,2.4373606040899176
4.36,2.4324824879295193
4.364,2.4380110195779707
4.368,2.4445151744585019
4.372,2.4380110195779707
4.376,2.4129700232879259
4.38,2.3775223791890312
4.384,2.3450016047863755
4.388,2.3469528512505349
4.392,2.4184985549363773
4.396,2.5732974410930183
4.4,2.7752514501335099
4.404,2.996717923815595
4.408,3.2061517109686974
4.412,3.3638774668215774
4.416,3.4142846671456937
4.42,3.2425749782996718
4.424,2.8445206996111665
4.428,2.5121583852160256
4.432,2.3846769495576154
4.436,2.359310745523544
4.44,2.3684165623562876
4.444,2.396709636086598
4.448,2.4272791640250944
4.452,2.4376858118339442
4.456,2.4308564492093865
4.46,2.4263035407930147
4.464,2.4295556182332803
4.468,2.4328076956735458
4.472,2.4269539562810678
4.476,2.4207750091445632
4.48,2.4246775020728819
4.484,2.4315068646974396
4.488,2.4289052027452271
4.492,2.4217506323766429
4.496,2.4230514633527491
4.5,2.4305312414653599
4.504,2.4328076956735458
4.508,2.4318320724414662
4.512,2.4360597731138114
4.516,2.4523201603151392
4.52,2.4594747306837235
4.524,2.4549218222673517
4.528,2.4542714067792986
4.532,2.4653284700762015
4.536,2.4663040933082812
4.54,2.4584991074516438
4.544,2.4571982764755376
4.548,2.4679301320284139
4.552,2.4783367798372637
4.556,2.4780115720932372
4.56,2.4747594946529716
4.564,2.4841905192297418
4.568,2.4981744522228837
4.572,2.5027273606392555
4.576,2.5007761141750962
4.58,2.5121583852160256
4.584,2.5277683569293004
4.588,2.5394758357142564
4.592,2.5414270821784157
4.596,2.5537849764514249
4.6,2.5703705713967793
4.604,2.5794763882295229
4.608,2.5876065818301868
4.612,2.6019157225673553
4.616,2.6217533949529752
4.62,2.6315096272737719
4.624,2.6308592117857188
4.628,2.6354121202020906
4.632,2.6487456377071794
4.636,2.6552497925877105
4.64,2.6497212609392591
4.644,2.6474448067310732
4.648,2.6500464686832856
4.652,2.6419162750826217
4.656,2.6207777717208955
4.66,2.5934603212226648
4.664,2.5798015959735494
4.668,2.5651672474923544
4.672,2.5371993815060705
4.676,2.5043533993593883
4.68,2.4835401037416887
4.684,2.4760603256290779
4.688,2.4633772236120421
4.692,2.4448403822025284
4.696,2.4376858118339442
4.7,2.4334581111615989
4.704,2.4237018788408022
4.708,2.4054902451753151
4.712,2.4019129599910229
4.716,2.4097179458476603
4.72,2.4116691923118196
4.724,2.4032137909671292
4.728,2.3983356748067308
4.732,2.3993112980388105
4.736,2.3957340128545184
4.74,2.3892298579739872
4.744,2.3895550657180138
4.748,2.3986608825507574
4.752,2.4054902451753151
4.756,2.4012625445029698
4.76,2.3976852593186777
4.764,2.4015877522469964
4.768,2.4064658684073947
4.772,2.4022381677350495
4.776,2.3970348438306246
4.78,2.3989860902947839
4.784,2.4071162838954479
4.788,2.4028885832231026
4.792,2.3970348438306246
4.796,2.4087423226155806
4.8,2.4201245936565101
4.804,2.4155716852401383
4.808,2.4080919071275275
4.812,2.4071162838954479
4.816,2.4149212697520852
4.82,2.4188237626804039
4.824,2.4097179458476603
4.828,2.4080919071275275
4.832,2.416547308472218
4.836,2.4184985549363773
4.84,2.4126448155438993
4.844,2.4087423226155806
4.848,2.4142708542640321
4.852,2.422401047864696
4.856,2.4142708542640321
4.86,2.4084171148715541
4.864,2.4116691923118196
4.868,2.4188237626804039
4.872,2.4155716852401383
4.876,2.4067910761514213
4.88,2.4100431535916869
4.884,2.4178481394483242
4.888,2.4191489704244304
4.892,2.416547308472218
4.896,2.4243522943288554
4.9,2.4337833189056255
4.904,2.4272791640250944
4.908,2.4152464774961118
4.912,2.4139456465200055
4.916,2.4191489704244304
4.92,2.4246775020728819
4.924,2.4211002168885898
4.928,2.4220758401206695
4.932,2.4315068646974396
4.936,2.4357345653697848
4.94,2.4292304104892537
4.944,2.4256531253049616
4.948,2.4380110195779707
4.952,2.4441899667144753
4.956,2.4376858118339442
4.96,2.4354093576257583
4.964,2.439311850554077
4.968,2.4412630970182363
4.972,2.4357345653697848
4.976,2.4292304104892537
4.98,2.4373606040899176
4.984,2.4487428751308471
4.988,2.448092459642794
4.992,2.4383362273219973
4.996,2.4367101886018645
5,2.442238720250316
5.004,2.4370353963458911
5.008,2.4292304104892537
5.012,2.4331329034175724
5.016,2.4441899667144753
5.02,2.4432143434823956
5.024,2.4344337343936786
5.028,2.431181656953413
5.032,2.4363849808578379
5.036,2.4370353963458911
5.04,2.4305312414653599
5.044,2.4305312414653599
5.048,2.4402874737861566
5.052,2.4441899667144753
5.056,2.4380110195779707
5.06,2.434108526649652
5.064,2.4412630970182363
5.068,2.4467916286666878
5.072,2.4380110195779707
5.076,2.4331329034175724
5.08,2.4461412131786346
5.084,2.4650032623321749
5.088,2.4760603256290779
5.092,2.4757351178850513
5.096,2.4789871953253169
5.1,2.4864669734379277
5.104,2.4750847023969982
5.108,2.4558974454994313
5.112,2.4435395512264222
5.116,2.4402874737861566
5.12,2.434108526649652
5.124,2.4233766710967757
5.128,2.4269539562810678
5.132,2.4448403822025284
5.136,2.4500437061069533
5.14,2.442238720250316
5.144,2.4386614350660238
5.148,2.4493932906189002
5.152,2.4532957835472189
5.156,2.4441899667144753
5.16,2.4386614350660238
5.164,2.4399622660421301
5.168,2.4197993859124836
5.172,2.3807744566292968
5.176,2.3576847068034112
5.18,2.4025633754790761
5.184,2.5274431491852738
5.188,2.6936243063828442
5.192,2.890374991518911
5.196,3.0994835709279869
5.2,3.2741201294702478
5.204,3.3707068294461351
5.208,3.3001367489923723
5.212,2.9954170928394888
5.216,2.6484204299631529
5.22,2.4754099101410247
5.224,2.4149212697520852
5.228,2.4142708542640321
5.232,2.4448403822025284
5.236,2.4653284700762015
5.24,2.4653284700762015
5.244,2.4555722377554048
5.248,2.4594747306837235
5.252,2.4607755616598297
5.256,2.4497184983629268
5.26,2.4432143434823956
5.264,2.4467916286666878
5.268,2.4506941215950064
5.272,2.4464664209226612
5.276,2.4376858118339442
5.28,2.4399622660421301
5.284,2.448092459642794
5.288,2.448092459642794
5.292,2.4402874737861566
5.296,2.4425639279943425
5.3,2.4523201603151392
5.304,2.4591495229396969
5.308,2.4558974454994313
5.312,2.4575234842195641
5.316,2.4672797165403608
5.32,2.4689057552604936
5.324,2.4643528468441218
5.328,2.4663040933082812
5.332,2.4802880263014231
5.336,2.4874425966700073
5.34,2.4867921811819542
5.344,2.4802880263014231
5.348,2.4861417656939011
5.352,2.4926459205744322
5.356,2.4929711283184588
5.36,2.494271959294565
5.364,2.5046786071034148
5.368,2.5128088007040787
5.372,2.5131340084481053
5.376,2.5150852549122646
5.38,2.5293943956494331
5.384,2.5479312370589469
5.388,2.554435391939478
5.392,2.5583378848677967
5.396,2.5684193249326199
5.4,2.5843545043899212
5.404,2.5967123986629304
5.408,2.5996392683591694
5.412,2.6084198774478864
5.416,2.6188265252567362
5.42,2.6194769407447893
5.424,2.6129727858642582
5.428,2.6119971626321785
5.432,2.6198021484888159
5.436,2.6162248633045238
5.44,2.5996392683591694
5.444,2.5791511804854963
5.448,2.5658176629804075
5.452,2.5476060293149203
5.456,2.5180121246085037
5.46,2.4900442586222198
5.464,2.4744342869089451
5.468,2.4611007694038562
5.472,2.4399622660421301
5.476,2.4181733471923508
5.48,2.4012625445029698
5.484,2.3902054812060669
5.488,2.3742703017487656
5.492,2.3580099145474378
5.496,2.3485788899706677
5.5,2.3511805519228801
5.504,2.3450016047863755
5.508,2.3352453724655788
5.512,2.3352453724655788
5.516,2.3423999428341631
5.52,2.3410991118580569
5.524,2.3342697492334992
5.528,2.3293916330731008
5.532,2.3339445414894726
5.536,2.3349201647215523
5.54,2.3238631014246494
5.544,2.3232126859365962
5.548,2.330692464049207
5.552,2.3332941260014195
5.556,2.324838724656729
5.56,2.3215866472164635
5.564,2.3313428795372602
5.568,2.3430503583222162
5.572,2.338822657649871
5.576,2.3336193337454461
5.58,2.3391478653938975
5.584,2.344676397042349
5.588,2.3414243196020834
5.592,2.3326437105133664
5.596,2.3368714111857116
5.6,2.347603266738588
5.604,2.3495545132027473
5.608,2.347603266738588
5.612,2.3466276435065083
5.616,2.356383875827305
5.62,2.3586603300354909
5.624,2.353457006131066
5.628,2.3544326293631457
5.632,2.3654896926600486
5.636,2.3680913546122611
5.64,2.359310745523544
5.644,2.3557334603392519
5.648,2.3654896926600486
5.652,2.370367808820447
5.656,2.362237615219783
5.66,2.3550830448511988
5.664,2.3658149004040752
5.668,2.3690669778443407
5.672,2.3632132384518627
5.676,2.356383875827305
5.68,2.3619124074757565
5.684,2.3771971714450046
5.688,2.3765467559569515
5.692,2.3661401081481017
5.696,2.3680913546122611
5.7,2.3771971714450046
5.704,2.3797988333972171
5.708,2.3749207172368187
5.712,2.3742703017487656
5.716,2.3830509108374827
5.72,2.3843517418135889
5.724,2.3784980024211109
5.728,2.3784980024211109
5.732,2.3872786115098279
5.736,2.3889046502299607
5.74,2.382075287605403
5.744,2.3817500798613764
5.748,2.393782766390359
5.752,2.4009373367589433
5.756,2.3915063121821731
5.76,2.3807744566292968
5.764,2.3902054812060669
5.768,2.4009373367589433
5.772,2.3989860902947839
5.776,2.393782766390359
5.78,2.3960592205985449
5.784,2.4002869212708902
5.788,2.3963844283425715
5.792,2.39085589669412
5.796,2.3941079741343856
5.8,2.4028885832231026
5.804,2.4022381677350495
5.808,2.3960592205985449
5.812,2.4015877522469964
5.816,2.4132952310319524
5.82,2.4093927381036337
5.824,2.399636505782837
5.828,2.3993112980388105
5.832,2.4100431535916869
5.836,2.41069356907974
5.84,2.404839829687262
5.844,2.4051650374312885
5.848,2.4103683613357134
5.852,2.41069356907974
5.856,2.4015877522469964
5.86,2.3986608825507574
5.864,2.4067910761514213
5.868,2.4188237626804039
5.872,2.4214254246326163
5.876,2.4155716852401383
5.88,2.4201245936565101
5.884,2.4279295795131475
5.888,2.4334581111615989
5.892,2.4438647589704487
5.896,2.4611007694038562
5.9,2.4789871953253169
5.904,2.4773611566051841
5.908,2.4669545087963343
5.912,2.4591495229396969
5.916,2.4562226532434579
5.92,2.4487428751308471
5.924,2.4321572801854927
5.928,2.4246775020728819
5.932,2.4328076956735458
5.936,2.4399622660421301
5.94,2.4337833189056255
5.944,2.4295556182332803
5.948,2.4350841498817317
5.952,2.4402874737861566
5.956,2.4367101886018645
5.96,2.4337833189056255
5.964,2.442238720250316
5.968,2.4487428751308471
5.972,2.4376858118339442
5.976,2.4100431535916869
5.98,2.3781727946770843
5.984,2.3606115764996503
5.988,2.3892298579739872
5.992,2.4910198818542995
5.996,2.6565506235638168
6,2.8568785938841756
6.004,3.0607838493888266
6.008,3.2256641756102908
6.012,3.3368852240673732
6.016,3.3004619567363989
6.02,3.0272874517540913
6.024,2.6611035319801886
6.028,2.468580547516467
6.032,2.4158968929841649
6.036,2.4158968929841649
6.04,2.4318320724414662
6.044,2.4493932906189002
6.048,2.4640276391000953
6.052,2.4650032623321749
6.056,2.4526453680591658
6.06,2.4432143434823956
6.064,2.4409378892742097
6.068,2.4399622660421301
6.072,2.4318320724414662
6.076,2.4269539562810678
6.08,2.4298808259773068
6.084,2.4324824879295193
6.088,2.4266287485370412
6.092,2.4220758401206695
6.096,2.4298808259773068
6.1,2.4406126815301832
6.104,2.445165589946555
6.108,2.445165589946555
6.112,2.4532957835472189
6.116,2.4646780545881484
6.12,2.4650032623321749
6.124,2.4588243151956704
6.128,2.456873068731511
6.132,2.4666293010523077
6.136,2.4747594946529716
6.14,2.4724830404447857
6.144,2.4734586636768654
6.148,2.4822392727655824
6.152,2.4880930121580604
6.156,2.4874425966700073
6.16,2.4877678044140339
6.164,2.4975240367348306
6.168,2.5115079697279725
6.172,2.5154104626562912
6.176,2.5163860858883709
6.18,2.52874398016138
6.184,2.5469556138268672
6.188,2.5511833144992124
6.192,2.5541101841954514
6.196,2.5674437017005403
6.2,2.5892326205503196
6.204,2.600614891591249
6.208,2.6067938387277536
6.212,2.6230542259290814
6.216,2.6393146131304093
6.22,2.6500464686832856
6.224,2.6503716764273122
6.228,2.6575262467958964
6.232,2.6692337255808525
6.236,2.6763882959494367
6.24,2.6731362185091712
6.244,2.6669572713726666
6.248,2.6663068558846135
6.252,2.6545993770996574
6.256,2.6318348350177985
6.26,2.6090702929359395
6.264,2.5908586592704523
6.268,2.5680941171885934
6.272,2.5371993815060705
6.276,2.5118331774719991
6.28,2.4926459205744322
6.284,2.4763855333731044
6.288,2.4611007694038562
6.292,2.4441899667144753
6.296,2.4331329034175724
6.3,2.4266287485370412
6.304,2.4181733471923508
6.308,2.4064658684073947
6.312,2.3999617135268636
6.316,2.4012625445029698
6.32,2.3999617135268636
6.324,2.3915063121821731
6.328,2.3898802734620403
6.332,2.3970348438306246
6.336,2.4022381677350495
6.34,2.3970348438306246
6.344,2.3986608825507574
6.348,2.4045146219432354
6.352,2.4071162838954479
6.356,2.4028885832231026
6.36,2.4032137909671292
6.364,2.413620438775979
6.368,2.4197993859124836
6.372,2.4158968929841649
6.376,2.4087423226155806
6.38,2.4103683613357134
6.384,2.413620438775979
6.388,2.4113439845677931
6.392,2.4028885832231026
6.396,2.4087423226155806
6.4,2.4181733471923508
6.404,2.4181733471923508
6.408,2.4090675303596072
6.412,2.4119944000558462
6.416,2.4217506323766429
6.42,2.4197993859124836
6.424,2.41069356907974
6.428,2.4087423226155806
6.432,2.4158968929841649
6.436,2.416547308472218
6.44,2.4119944000558462
6.444,2.4097179458476603
6.448,2.4126448155438993
6.452,2.4093927381036337
6.456,2.3986608825507574
6.46,2.3947583896224387
6.464,2.4022381677350495
6.468,2.3947583896224387
6.472,2.3866281960217748
6.476,2.387929026997881
6.48,2.4067910761514213
6.484,2.4302060337213334
6.488,2.4373606040899176
6.492,2.4324824879295193
6.496,2.4350841498817317
6.5,2.4435395512264222
6.504,2.4399622660421301
6.508,2.4315068646974396
6.512,2.4334581111615989
6.516,2.4399622660421301
6.52,2.4376858118339442
6.524,2.4285799950012006
6.528,2.4250027098169085
6.532,2.4350841498817317
6.536,2.442238720250316
6.54,2.4383362273219973
6.544,2.4363849808578379
6.548,2.4441899667144753
6.552,2.4477672518987674
6.556,2.4402874737861566
6.56,2.4363849808578379
6.564,2.448092459642794
6.568,2.4558974454994313
6.572,2.448092459642794
6.576,2.4409378892742097
6.58,2.4487428751308471
6.584,2.4519949525711127
6.588,2.4461412131786346
6.592,2.4402874737861566
6.596,2.4493932906189002
6.6,2.45979993842775
6.604,2.4565478609874845
6.608,2.4477672518987674
6.612,2.4523201603151392
6.616,2.4676049242843874
6.62,2.473783871420892
6.624,2.4702065862365998
6.628,2.4653284700762015
6.632,2.4620763926359359
6.636,2.4532957835472189
6.64,2.4432143434823956
6.644,2.4519949525711127
6.648,2.4666293010523077
6.652,2.4666293010523077
6.656,2.4503689138509799
6.66,2.4467916286666878
6.664,2.4672797165403608
6.668,2.4776863643492106
6.672,2.473783871420892
6.676,2.465653677820228
6.68,2.4659788855642546
6.684,2.4741090791649185
6.688,2.4799628185573965
6.692,2.4841905192297418
6.696,2.4991500754549634
6.7,2.5248414872330613
6.704,2.5420774976664688
6.708,2.5349229272978846
6.712,2.514109631680185
6.716,2.4958979980146978
6.72,2.4770359488611575
6.724,2.4552470300113782
6.728,2.4506941215950064
6.732,2.4578486919635907
6.736,2.4584991074516438
6.74,2.4532957835472189
6.744,2.4532957835472189
6.748,2.4617511848919094
6.752,2.4659788855642546
6.756,2.4607755616598297
6.76,2.4611007694038562
6.764,2.4724830404447857
6.768,2.4799628185573965
6.772,2.4780115720932372
6.776,2.4708570017246529
6.78,2.4633772236120421
6.784,2.4367101886018645
6.788,2.4116691923118196
6.792,2.4441899667144753
6.796,2.5693949481646996
6.8,2.7463079609151464
6.804,2.9372049066587351
6.808,3.1294026833784301
6.812,3.318673590401886
6.816,3.4129838361695874
6.82,3.3007871644804254
6.824,2.9310259595222306
6.828,2.5404514589463361
6.832,2.3609367842436768
6.836,2.3284160098410212
6.84,2.3365462034416851
6.844,2.3739450940047391
6.848,2.4230514633527491
6.852,2.4578486919635907
6.856,2.4708570017246529
6.86,2.47963761081337
6.864,2.4900442586222198
6.868,2.494271959294565
6.872,2.491345089598326
6.876,2.482564480509609
6.88,2.4874425966700073
6.884,2.4958979980146978
6.888,2.494271959294565
6.892,2.4880930121580604
6.896,2.4936215438065119
6.9,2.4998004909430165
6.904,2.5011013219191227
6.908,2.4998004909430165
6.912,2.4981744522228837
6.916,2.5024021528952289
6.92,2.5020769451512024
6.924,2.4949223747826181
6.928,2.4936215438065119
6.932,2.5046786071034148
6.936,2.5066298535675742
6.94,2.5033777761273086
6.944,2.5072802690556273
6.948,2.517036501376424
6.952,2.5183373323525302
6.956,2.5212642020487692
6.96,2.5251666949770879
6.964,2.5352481350419112
6.968,2.5362237582739908
6.972,2.5274431491852738
6.976,2.5293943956494331
6.98,2.5479312370589469
6.984,2.5697201559087262
6.988,2.5710209868848324
6.992,2.5716714023728855
6.996,2.5820780501817353
7,2.5954115676868241
7.004,2.5970376064069569
7.008,2.5934603212226648
7.012,2.6061434232397005
7.016,2.629233173065586
7.02,2.6454935602669138
7.024,2.6425666905706748
7.028,2.6458187680109404
7.032,2.651997715147445
7.036,2.6552497925877105
7.04,2.6477700144750997
7.044,2.6347617047140375
7.048,2.6341112892259844
7.052,2.6347617047140375
7.056,2.6162248633045238
7.06,2.5902082437823992
7.064,2.5732974410930183
7.068,2.551508522243239
7.072,2.5225650330248754
7.076,2.4958979980146978
7.08,2.4802880263014231
7.084,2.4711822094686795
7.088,2.4519949525711127
7.092,2.4337833189056255
7.096,2.4233766710967757
7.1,2.4201245936565101
7.104,2.4032137909671292
7.108,2.3797988333972171
7.112,2.3742703017487656
7.116,2.3801240411412437
7.12,2.3794736256531905
7.124,2.3752459249808453
7.128,2.387929026997881
7.132,2.4064658684073947
7.136,2.4054902451753151
7.14,2.3947583896224387
7.144,2.3993112980388105
7.148,2.4113439845677931
7.152,2.4188237626804039
7.156,2.4129700232879259
7.16,2.4035389987111557
7.164,2.4035389987111557
7.168,2.4051650374312885
7.172,2.4019129599910229
7.176,2.4038642064551823
7.18,2.4197993859124836
7.184,2.4263035407930147
7.188,2.416547308472218
7.192,2.4080919071275275
7.196,2.4184985549363773
7.2,2.428254787257174
7.204,2.419474178168457
7.208,2.4084171148715541
7.212,2.4045146219432354
7.216,2.4126448155438993
7.22,2.4175229317042977
7.224,2.4097179458476603
7.228,2.4080919071275275
7.232,2.4103683613357134
7.236,2.407766699383501
7.24,2.4025633754790761
7.244,2.4006121290149167
7.248,2.4103683613357134
7.252,2.4110187768237665
7.256,2.4054902451753151
7.26,2.4012625445029698
7.264,2.4012625445029698
7.268,2.4035389987111557
7.272,2.3993112980388105
7.276,2.3941079741343856
7.28,2.4002869212708902
7.284,2.4071162838954479
7.288,2.4002869212708902
7.292,2.3947583896224387
7.296,2.3960592205985449
7.3,2.3999617135268636
7.304,2.3915063121821731
7.308,2.3745955094927922
7.312,2.3778475869330578
7.316,2.3863029882777482
7.32,2.3840265340695623
7.324,2.3755711327248719
7.328,2.3771971714450046
7.332,2.3905306889500935
7.336,2.4025633754790761
7.34,2.3976852593186777
7.344,2.3843517418135889
7.348,2.3830509108374827
7.352,2.3892298579739872
7.356,2.3889046502299607
7.36,2.3807744566292968
7.364,2.3824004953494295
7.368,2.373294678516686
7.372,2.3619124074757565
7.376,2.3671157313801814
7.38,2.3833761185815092
7.384,2.3918315199261997
7.388,2.3898802734620403
7.392,2.3853273650456686
7.396,2.3885794424859341
7.4,2.3931323509023059
7.404,2.3885794424859341
7.408,2.3810996643733233
7.412,2.3898802734620403
7.416,2.404839829687262
7.42,2.4084171148715541
7.424,2.4038642064551823
7.428,2.4061406606633682
7.432,2.4217506323766429
7.436,2.4334581111615989
7.44,2.4350841498817317
7.444,2.4360597731138114
7.448,2.442238720250316
7.452,2.4360597731138114
7.456,2.419474178168457
7.46,2.3973600515746512
7.464,2.3846769495576154
7.468,2.3684165623562876
7.472,2.3609367842436768
7.476,2.3671157313801814
7.48,2.3775223791890312
7.484,2.3905306889500935
7.488,2.39085589669412
7.492,2.3814248721173499
7.496,2.3827257030934561
7.5,2.3905306889500935
7.504,2.3898802734620403
7.508,2.376221548212925
7.512,2.3713434320525266
7.516,2.379148417909164
7.52,2.3713434320525266
7.524,2.347603266738588
7.528,2.3362209956976585
7.532,2.385002157301642
7.536,2.4871173889259808
7.54,2.6464691834989935
7.544,2.8435450763790868
7.548,3.0415965924912598
7.552,3.2289162530505564
7.556,3.3378608472994529
7.56,3.2503799641563091
7.564,2.8789927204779815
7.568,2.448092459642794
7.572,2.2230487007764168
7.576,2.1804464863089379
7.58,2.20386144387885
7.584,2.2386586724896915
7.588,2.2741063165885862
7.592,2.3176841542881448
7.596,2.362237615219783
7.6,2.3941079741343856
7.604,2.4009373367589433
7.608,2.3954088051104918
7.612,2.3999617135268636
7.616,2.4149212697520852
7.62,2.416547308472218
7.624,2.4084171148715541
7.628,2.4051650374312885
7.632,2.4116691923118196
7.636,2.4217506323766429
7.64,2.4279295795131475
7.644,2.4285799950012006
7.648,2.4367101886018645
7.652,2.4435395512264222
7.656,2.4350841498817317
7.66,2.4279295795131475
7.664,2.4445151744585019
7.668,2.4617511848919094
7.672,2.4643528468441218
7.676,2.456873068731511
7.68,2.4617511848919094
7.684,2.4698813784925733
7.688,2.4692309630045202
7.692,2.462726808123989
7.696,2.4721578327007592
7.7,2.4880930121580604
7.704,2.4945971670385916
7.708,2.4906946741102729
7.712,2.5053290225914679
7.716,2.5235406562569551
7.72,2.5323212653456721
7.724,2.5381750047381502
7.728,2.5518337299872655
7.732,2.5648420397483278
7.736,2.5729722333489917
7.74,2.5713461946288589
7.744,2.5791511804854963
7.748,2.5934603212226648
7.752,2.59768802189501
7.756,2.5950863599427976
7.76,2.5996392683591694
7.764,2.6152492400724441
7.768,2.6243550569051877
7.772,2.6172004865366034
7.776,2.6038669690315146
7.78,2.6022409303113818
7.784,2.6025661380554084
7.788,2.6019157225673553
7.792,2.5999644761031959
7.796,2.5846797121339478
7.8,2.5619151700520888
7.804,2.5326464730896987
7.808,2.5069550613116007
7.812,2.491345089598326
7.816,2.476710741117131
7.82,2.4571982764755376
7.824,2.4328076956735458
7.828,2.4116691923118196
7.832,2.4032137909671292
7.836,2.3944331818784121
7.84,2.3755711327248719
7.844,2.3661401081481017
7.848,2.362237615219783
7.852,2.3573594990593847
7.856,2.3524813828989863
7.86,2.3407739041140303
7.864,2.3371966189297382
7.868,2.3404486963700037
7.872,2.3404486963700037
7.876,2.3401234886259772
7.88,2.3401234886259772
7.884,2.3404486963700037
7.888,2.3352453724655788
7.892,2.3297168408171274
7.896,2.3401234886259772
7.9,2.3537822138750926
7.904,2.3466276435065083
7.908,2.3352453724655788
7.912,2.338822657649871
7.916,2.3638636539399158
7.92,2.3661401081481017
7.924,2.3602863687556237
7.928,2.3596359532675706
7.932,2.3599611610115971
7.936,2.3606115764996503
7.94,2.3602863687556237
7.944,2.3635384461958893
7.948,2.3723190552846063
7.952,2.3771971714450046
7.956,2.3736198862607125
7.96,2.373294678516686
7.964,2.3827257030934561
7.968,2.3866281960217748
7.972,2.3729694707726594
7.976,2.3658149004040752
7.98,2.3706930165644735
7.984,2.3827257030934561
7.988,2.3905306889500935
7.992,2.3902054812060669
7.996,2.39085589669412
8,2.3898802734620403
8.004,2.3918315199261997
8.008,2.3924819354142528
8.012,2.399636505782837
8.016,2.4025633754790761
8.02,2.3941079741343856
8.024,2.3830509108374827
8.028,2.3824004953494295
8.032,2.3885794424859341
8.036,2.3902054812060669
8.04,2.3856525727896951
8.044,2.3885794424859341
8.048,2.3957340128545184
8.052,2.4019129599910229
8.056,2.3960592205985449
8.06,2.3872786115098279
8.064,2.3921567276702262
8.068,2.3954088051104918
8.072,2.382075287605403
8.076,2.3768719637009781
8.08,2.3889046502299607
8.084,2.4019129599910229
8.088,2.4015877522469964
8.092,2.3954088051104918
8.096,2.4022381677350495
8.1,2.407766699383501
8.104,2.4041894141992088
8.108,2.4006121290149167
8.112,2.4025633754790761
8.116,2.4028885832231026
8.12,2.4009373367589433
8.124,2.396709636086598
8.128,2.3999617135268636
8.132,2.4054902451753151
8.136,2.4028885832231026
8.14,2.4006121290149167
8.144,2.4054902451753151
8.148,2.4126448155438993
8.152,2.4295556182332803
8.156,2.4435395512264222
8.16,2.4500437061069533
8.164,2.4584991074516438
8.168,2.4601251461717766
8.172,2.4432143434823956
8.176,2.4211002168885898
8.18,2.4152464774961118
8.184,2.4175229317042977
8.188,2.4028885832231026
8.192,2.3986608825507574
8.196,2.4019129599910229
8.2,2.4097179458476603
8.204,2.4080919071275275
8.208,2.3931323509023059
8.212,2.3872786115098279
8.216,2.3963844283425715
8.22,2.4022381677350495
8.224,2.3976852593186777
8.228,2.3970348438306246
8.232,2.4038642064551823
8.236,2.4080919071275275
8.24,2.3794736256531905
8.244,2.3515057596669067
8.248,2.3697173933323938
8.252,2.4578486919635907
8.256,2.6119971626321785
8.26,2.8077722245361656
8.264,3.0194824658974539
8.268,3.2250137601222377
8.272,3.3638774668215774
8.276,3.3427389634598512
8.28,3.0770442365901545
8.284,2.6344364969700109
8.288,2.3196354007523041
8.292,2.2249999472405761
8.296,2.241260334441904
8.3,2.27280548561248
8.304,2.3134564536157995
8.308,2.365164484916022
8.312,2.4058154529193416
8.316,2.4363849808578379
8.32,2.4386614350660238
8.324,2.4272791640250944
8.328,2.4246775020728819
8.332,2.434108526649652
8.336,2.4305312414653599
8.34,2.4220758401206695
8.344,2.4246775020728819
8.348,2.4360597731138114
8.352,2.4402874737861566
8.356,2.4347589421377052
8.36,2.4432143434823956
8.364,2.456873068731511
8.368,2.4594747306837235
8.372,2.4601251461717766
8.376,2.4617511848919094
8.38,2.4698813784925733
8.384,2.4750847023969982
8.388,2.4724830404447857
8.392,2.465653677820228
8.396,2.4776863643492106
8.4,2.4897190508781932
8.404,2.5014265296631493
8.408,2.5072802690556273
8.412,2.5137844239361584
8.416,2.5219146175368223
8.42,2.5163860858883709
8.424,2.5183373323525302
8.428,2.5251666949770879
8.432,2.5355733427859377
8.436,2.5424027054104954
8.44,2.5466304060828406
8.444,2.5495572757790796
8.448,2.566142870724434
8.452,2.5863057508540805
8.456,2.5872813740861602
8.46,2.5863057508540805
8.464,2.5970376064069569
8.468,2.603541761287488
8.472,2.6045173845195677
8.476,2.6080946697038598
8.48,2.6201273562328424
8.484,2.6269567188574001
8.488,2.6246802646492142
8.492,2.6191517330007628
8.496,2.6220786026970018
8.5,2.6259810956253204
8.504,2.6220786026970018
8.508,2.6110215394000988
8.512,2.59768802189501
8.516,2.5840292966458946
8.52,2.5684193249326199
8.524,2.5404514589463361
8.528,2.5150852549122646
8.532,2.4988248677109368
8.536,2.4754099101410247
8.54,2.4506941215950064
8.544,2.4363849808578379
8.548,2.4263035407930147
8.552,2.4168725162162445
8.556,2.4022381677350495
8.56,2.3895550657180138
8.564,2.3902054812060669
8.568,2.393782766390359
8.572,2.3801240411412437
8.576,2.3736198862607125
8.58,2.3804492488852702
8.584,2.3846769495576154
8.588,2.3706930165644735
8.592,2.362237615219783
8.596,2.3680913546122611
8.6,2.3726442630286328
8.604,2.3697173933323938
8.608,2.3664653158921283
8.612,2.3745955094927922
8.616,2.3866281960217748
8.62,2.3830509108374827
8.624,2.373294678516686
8.628,2.3693921855883673
8.632,2.3739450940047391
8.636,2.3758963404688984
8.64,2.3713434320525266
8.644,2.3749207172368187
8.648,2.3784980024211109
8.652,2.3775223791890312
8.656,2.3768719637009781
8.66,2.3827257030934561
8.664,2.3957340128545184
8.668,2.3947583896224387
8.672,2.3856525727896951
8.676,2.3915063121821731
8.68,2.4051650374312885
8.684,2.4103683613357134
8.688,2.4035389987111557
8.692,2.3931323509023059
8.696,2.396709636086598
8.7,2.4058154529193416
8.704,2.4132952310319524
8.708,2.4132952310319524
8.712,2.4214254246326163
8.716,2.4298808259773068
8.72,2.419474178168457
8.724,2.4035389987111557
8.728,2.4035389987111557
8.732,2.4084171148715541
8.736,2.4116691923118196
8.74,2.4152464774961118
8.744,2.4142708542640321
8.748,2.413620438775979
8.752,2.4152464774961118
8.756,2.4067910761514213
8.76,2.4035389987111557
8.764,2.4158968929841649
8.768,2.4246775020728819
8.772,2.4214254246326163
8.776,2.419474178168457
8.78,2.4269539562810678
8.784,2.4302060337213334
8.788,2.4201245936565101
8.792,2.4087423226155806
8.796,2.4119944000558462
8.8,2.4184985549363773
8.804,2.4175229317042977
8.808,2.4129700232879259
8.812,2.4178481394483242
8.816,2.425327917560935
8.82,2.4217506323766429
8.824,2.4220758401206695
8.828,2.4227262556087226
8.832,2.4302060337213334
8.836,2.4324824879295193
8.84,2.422401047864696
8.844,2.425327917560935
8.848,2.445165589946555
8.852,2.4620763926359359
8.856,2.4724830404447857
8.86,2.4776863643492106
8.864,2.4754099101410247
8.868,2.45979993842775
8.872,2.4383362273219973
8.876,2.4269539562810678
8.88,2.425327917560935
8.884,2.4201245936565101
8.888,2.4084171148715541
8.892,2.4045146219432354
8.896,2.4084171148715541
8.9,2.4162221007281914
8.904,2.4158968929841649
8.908,2.4155716852401383
8.912,2.4217506323766429
8.916,2.4250027098169085
8.92,2.4250027098169085
8.924,2.4191489704244304
8.928,2.4152464774961118
8.932,2.4178481394483242
8.936,2.4064658684073947
8.94,2.3801240411412437
8.944,2.3680913546122611
8.948,2.4126448155438993
8.952,2.5254919027211145
8.956,2.68646973601426
8.96,2.8920010302390438
8.964,3.1150935426412616
8.968,3.3183483826578595
8.972,3.4175367445859592
8.976,3.3281046149786562
8.98,2.9885877302149311
8.984,2.5550858074275311
8.988,2.3180093620321713
8.992,2.2676021617080551
8.996,2.2906919115339406
9,2.3313428795372602
9.004,2.3723190552846063
9.008,2.4103683613357134
9.012,2.4357345653697848
9.016,2.445165589946555
9.02,2.4435395512264222
9.024,2.442238720250316
9.028,2.4477672518987674
9.032,2.4497184983629268
9.036,2.439311850554077
9.04,2.4263035407930147
9.044,2.4302060337213334
9.048,2.4412630970182363
9.052,2.4428891357383691
9.056,2.4357345653697848
9.06,2.4350841498817317
9.064,2.4500437061069533
9.068,2.4617511848919094
9.072,2.4637024313560687
9.076,2.4620763926359359
9.08,2.4633772236120421
9.084,2.4692309630045202
9.088,2.4695561707485467
9.092,2.4663040933082812
9.096,2.4734586636768654
9.1,2.4802880263014231
9.104,2.4845157269737683
9.108,2.4858165579498746
9.112,2.4975240367348306
9.116,2.5079306845436804
9.12,2.5007761141750962
9.124,2.4945971670385916
9.128,2.5033777761273086
9.132,2.5238658640009817
9.136,2.5362237582739908
9.14,2.5401262512023095
9.144,2.5489068602910265
9.148,2.5593135080998763
9.152,2.5641916242602747
9.156,2.5677689094445668
9.16,2.569069740420673
9.164,2.5817528424377088
9.168,2.5950863599427976
9.172,2.6032165535434615
9.176,2.6087450851919129
9.18,2.6139484090963379
9.184,2.6152492400724441
9.188,2.6106963316560723
9.192,2.6093955006799661
9.196,2.6126475781202316
9.2,2.6158996555604972
9.204,2.6064686309837271
9.208,2.5924846979905851
9.212,2.5749234798131511
9.216,2.5511833144992124
9.22,2.5310204343695659
9.224,2.5059794380795211
9.228,2.4910198818542995
9.232,2.4802880263014231
9.236,2.4591495229396969
9.24,2.4302060337213334
9.244,2.4113439845677931
9.248,2.4028885832231026
9.252,2.3931323509023059
9.256,2.3742703017487656
9.26,2.3635384461958893
9.264,2.3641888616839424
9.268,2.365164484916022
9.272,2.3615871997317299
9.276,2.3635384461958893
9.28,2.3700426010764204
9.284,2.373294678516686
9.288,2.3687417701003142
9.292,2.3632132384518627
9.296,2.3667905236361548
9.3,2.3723190552846063
9.304,2.3645140694279689
9.308,2.3573594990593847
9.312,2.3599611610115971
9.316,2.3716686397965532
9.32,2.3723190552846063
9.324,2.3677661468682345
9.328,2.3684165623562876
9.332,2.3719938475405797
9.336,2.3680913546122611
9.34,2.3557334603392519
9.344,2.3541074216191191
9.348,2.3674409391242079
9.352,2.3784980024211109
9.356,2.3778475869330578
9.36,2.3749207172368187
9.364,2.3814248721173499
9.368,2.3902054812060669
9.372,2.3863029882777482
9.376,2.3827257030934561
9.38,2.3833761185815092
9.384,2.3892298579739872
9.388,2.3856525727896951
9.392,2.3830509108374827
9.396,2.3853273650456686
9.4,2.3905306889500935
9.404,2.387929026997881
9.408,2.3830509108374827
9.412,2.3853273650456686
9.416,2.3902054812060669
9.42,2.3885794424859341
9.424,2.3810996643733233
9.428,2.3863029882777482
9.432,2.3993112980388105
9.436,2.3989860902947839
9.44,2.3843517418135889
9.444,2.3830509108374827
9.448,2.3980104670627043
9.452,2.4035389987111557
9.456,2.4051650374312885
9.46,2.4002869212708902
9.464,2.4019129599910229
9.468,2.4080919071275275
9.472,2.4028885832231026
9.476,2.3924819354142528
9.48,2.3970348438306246
9.484,2.404839829687262
9.488,2.3950835973664653
9.492,2.3889046502299607
9.496,2.3947583896224387
9.5,2.4038642064551823
9.504,2.4002869212708902
9.508,2.3954088051104918
9.512,2.399636505782837
9.516,2.4132952310319524
9.52,2.4123196077998728
9.524,2.4110187768237665
9.528,2.4201245936565101
9.532,2.4321572801854927
9.536,2.4383362273219973
9.54,2.4474420441547409
9.544,2.4637024313560687
9.548,2.4754099101410247
9.552,2.4698813784925733
9.556,2.4503689138509799
9.56,2.4344337343936786
9.564,2.4289052027452271
9.568,2.4214254246326163
9.572,2.4126448155438993
9.576,2.4087423226155806
9.58,2.4129700232879259
9.584,2.4204498014005367
9.588,2.4168725162162445
9.592,2.4129700232879259
9.596,2.4142708542640321
9.6,2.4181733471923508
9.604,2.416547308472218
9.608,2.4110187768237665
9.612,2.4123196077998728
9.616,2.4191489704244304
9.62,2.413620438775979
9.624,2.3924819354142528
9.628,2.3599611610115971
9.632,2.3472780589945614
9.636,2.3697173933323938
9.64,2.45979993842775
9.644,2.6285827575775329
9.648,2.836065298266476
9.652,3.0520032403001096
9.656,3.2507051719003357
9.66,3.381763892743038
9.664,3.3603001816372853
9.668,3.0894021308631636
9.672,2.6458187680109404
9.676,2.3554082525952253
9.68,2.2737811088445596
9.684,2.2780088095169049
9.688,2.3056514677591622
9.692,2.3498797209467739
9.696,2.3905306889500935
9.7,2.4168725162162445
9.704,2.4269539562810678
9.708,2.4250027098169085
9.712,2.4250027098169085
9.716,2.4272791640250944
9.72,2.4246775020728819
9.724,2.4178481394483242
9.728,2.4207750091445632
9.732,2.4315068646974396
9.736,2.4315068646974396
9.74,2.4315068646974396
9.744,2.4328076956735458
9.748,2.4415883047622629
9.752,2.4448403822025284
9.756,2.445165589946555
9.76,2.4523201603151392
9.764,2.4643528468441218
9.768,2.4724830404447857
9.772,2.4659788855642546
9.776,2.4637024313560687
9.78,2.4650032623321749
9.784,2.4702065862365998
9.788,2.4721578327007592
9.792,2.4734586636768654
9.796,2.4880930121580604
9.8,2.4994752831989899
9.804,2.494271959294565
9.808,2.4900442586222198
9.812,2.4949223747826181
9.816,2.5069550613116007
9.82,2.511182761983946
9.824,2.5134592161921319
9.828,2.5303700188815128
9.832,2.5459799905947875
9.836,2.557362261635717
9.84,2.5554110151715577
9.844,2.563216001028195
9.848,2.5833788811578415
9.852,2.5931351134786382
9.856,2.5963871909189038
9.86,2.6074442542158067
9.864,2.6211029794649221
9.868,2.6243550569051877
9.872,2.6220786026970018
9.876,2.61752569428063
9.88,2.6250054723932408
9.884,2.6302087962976657
9.888,2.6172004865366034
9.892,2.6038669690315146
9.896,2.6045173845195677
9.9,2.5980132296390366
9.904,2.577199934021337
9.908,2.5541101841954514
9.912,2.5339473040658049
9.916,2.5066298535675742
9.92,2.4776863643492106
9.924,2.4513445370830595
9.928,2.4412630970182363
9.932,2.4370353963458911
9.936,2.4158968929841649
9.94,2.3934575586463325
9.944,2.3892298579739872
9.948,2.3921567276702262
9.952,2.3902054812060669
9.956,2.3784980024211109
9.96,2.370367808820447
9.964,2.3739450940047391
9.968,2.3736198862607125
9.972,2.3625628229638096
9.976,2.3606115764996503
9.98,2.3671157313801814
9.984,2.3671157313801814
9.988,2.3641888616839424
9.992,2.3606115764996503
9.996,2.3658149004040752
10,2.3745955094927922
10.004,2.3755711327248719
10.008,2.3739450940047391
10.012,2.3758963404688984
10.016,2.3755711327248719
10.02,2.365164484916022
10.024,2.3606115764996503
10.028,2.3690669778443407
10.032,2.3729694707726594
10.036,2.3690669778443407
10.04,2.3635384461958893
10.044,2.3719938475405797
10.048,2.382075287605403
10.052,2.3804492488852702
10.056,2.3719938475405797
10.06,2.3775223791890312
10.064,2.3882542347419076
10.068,2.3846769495576154
10.072,2.3784980024211109
10.076,2.382075287605403
10.08,2.3941079741343856
10.084,2.3989860902947839
10.088,2.3931323509023059
10.092,2.3814248721173499
10.096,2.3856525727896951
10.1,2.3924819354142528
10.104,2.3885794424859341
10.108,2.3889046502299607
10.112,2.3941079741343856
10.116,2.4015877522469964
10.12,2.4019129599910229
10.124,2.3970348438306246
10.128,2.4038642064551823
10.132,2.4054902451753151
10.136,2.4015877522469964
10.14,2.39085589669412
10.144,2.3843517418135889
10.148,2.3911811044381466
10.152,2.3954088051104918
10.156,2.3872786115098279
10.16,2.385002157301642
10.164,2.3837013263255358
10.168,2.3837013263255358
10.172,2.3781727946770843
10.176,2.3846769495576154
10.18,2.3976852593186777
10.184,2.396709636086598
10.188,2.385002157301642
10.192,2.379148417909164
10.196,2.3882542347419076
10.2,2.3915063121821731
10.204,2.3911811044381466
10.208,2.39085589669412
10.212,2.3986608825507574
10.216,2.4110187768237665
10.22,2.4191489704244304
10.224,2.419474178168457
10.228,2.4217506323766429
10.232,2.4363849808578379
10.236,2.448092459642794
10.24,2.4477672518987674
10.244,2.4428891357383691
10.248,2.4363849808578379
10.252,2.428254787257174
10.256,2.4142708542640321
10.26,2.404839829687262
10.264,2.4019129599910229
10.268,2.3941079741343856
10.272,2.3872786115098279
10.276,2.3915063121821731
10.28,2.4025633754790761
10.284,2.4038642064551823
10.288,2.3960592205985449
10.292,2.3934575586463325
10.296,2.4028885832231026
10.3,2.41069356907974
10.304,2.4093927381036337
10.308,2.4032137909671292
10.312,2.4051650374312885
10.316,2.4002869212708902
10.32,2.3794736256531905
10.324,2.338822657649871
10.328,2.3069522987352684
10.332,2.3472780589945614
10.336,2.4741090791649185
10.34,2.6510220919153653
10.344,2.8679356571810786
10.348,3.0988331554399338
10.352,3.2946082173439208
10.356,3.3970486567122862
10.36,3.3134702664974611
10.364,2.9762298359419219
10.368,2.5401262512023095
10.372,2.3056514677591622
10.376,2.2614232145715505
10.38,2.2806104714691173
10.384,2.3173589465441182
10.388,2.3557334603392519
10.392,2.3895550657180138
10.396,2.4220758401206695
10.4,2.4220758401206695
10.404,2.4090675303596072
10.408,2.4074414916394744
10.412,2.4168725162162445
10.416,2.4214254246326163
10.42,2.4155716852401383
10.424,2.4116691923118196
10.428,2.4227262556087226
10.432,2.4389866428100504
10.436,2.4425639279943425
10.44,2.4363849808578379
10.444,2.4373606040899176
10.448,2.4441899667144753
10.452,2.4493932906189002
10.456,2.4448403822025284
10.46,2.4503689138509799
10.464,2.4578486919635907
10.468,2.4594747306837235
10.472,2.4575234842195641
10.476,2.4630520158680156
10.48,2.4809384417894762
10.484,2.4929711283184588
10.488,2.4864669734379277
10.492,2.4897190508781932
10.496,2.5076054767996538
10.5,2.5245162794890348
10.504,2.52874398016138
10.508,2.5293943956494331
10.512,2.5417522899224423
10.516,2.5502076912671328
10.52,2.5498824835231062
10.524,2.5508581067551859
10.528,2.557362261635717
10.532,2.5674437017005403
10.536,2.5732974410930183
10.54,2.5846797121339478
10.544,2.5957367754308507
10.548,2.6201273562328424
10.552,2.6344364969700109
10.556,2.6308592117857188
10.56,2.6337860814819578
10.564,2.6464691834989935
10.568,2.6474448067310732
10.572,2.6370381589222234
10.576,2.6406154441065155
10.58,2.6493960531952325
10.584,2.6435423138027545
10.588,2.6279323420894798
10.592,2.6132979936082847
10.596,2.6067938387277536
10.6,2.5934603212226648
10.604,2.5684193249326199
10.608,2.5332968885777518
10.612,2.5053290225914679
10.616,2.4923207128304057
10.62,2.4663040933082812
10.624,2.4448403822025284
10.628,2.4315068646974396
10.632,2.4233766710967757
10.636,2.4113439845677931
10.64,2.3957340128545184
10.644,2.3853273650456686
10.648,2.3801240411412437
10.652,2.3758963404688984
10.656,2.3752459249808453
10.66,2.382075287605403
10.664,2.3915063121821731
10.668,2.3911811044381466
10.672,2.3807744566292968
10.676,2.3771971714450046
10.68,2.3814248721173499
10.684,2.3840265340695623
10.688,2.3833761185815092
10.692,2.3824004953494295
10.696,2.3924819354142528
10.7,2.3889046502299607
10.704,2.3771971714450046
10.708,2.3706930165644735
10.712,2.3814248721173499
10.716,2.3963844283425715
10.72,2.3954088051104918
10.724,2.3928071431582794
10.728,2.3973600515746512
10.732,2.4002869212708902
10.736,2.3954088051104918
10.74,2.3869534037658013
10.744,2.3986608825507574
10.748,2.4119944000558462
10.752,2.4113439845677931
10.756,2.4035389987111557
10.76,2.4012625445029698
10.764,2.4028885832231026
10.768,2.4012625445029698
10.772,2.396709636086598
10.776,2.4035389987111557
10.78,2.4158968929841649
10.784,2.4214254246326163
10.788,2.4155716852401383
10.792,2.4074414916394744
10.796,2.404839829687262
10.8,2.4080919071275275
10.804,2.4054902451753151
10.808,2.4051650374312885
10.812,2.4100431535916869
10.816,2.4168725162162445
10.82,2.4145960620080587
10.824,2.4054902451753151
10.828,2.4045146219432354
10.832,2.4071162838954479
10.836,2.4032137909671292
10.84,2.3957340128545184
10.844,2.4025633754790761
10.848,2.4103683613357134
10.852,2.4110187768237665
10.856,2.4074414916394744
10.86,2.4041894141992088
10.864,2.4054902451753151
10.868,2.4090675303596072
10.872,2.4025633754790761
10.876,2.3999617135268636
10.88,2.4019129599910229
10.884,2.399636505782837
10.888,2.3963844283425715
10.892,2.3970348438306246
10.896,2.4012625445029698
10.9,2.4067910761514213
10.904,2.4012625445029698
10.908,2.3892298579739872
10.912,2.3876038192538545
10.916,2.3986608825507574
10.92,2.4022381677350495
10.924,2.3993112980388105
10.928,2.4061406606633682
10.932,2.4152464774961118
10.936,2.4119944000558462
10.94,2.4025633754790761
10.944,2.4002869212708902
10.948,2.4119944000558462
10.952,2.4181733471923508
10.956,2.4184985549363773
10.96,2.4149212697520852
10.964,2.4175229317042977
10.968,2.4279295795131475
10.972,2.4409378892742097
10.976,2.4549218222673517
10.98,2.4611007694038562
10.984,2.4523201603151392
10.988,2.434108526649652
10.992,2.4211002168885898
10.996,2.4171977239602711
11,2.4100431535916869
11.004,2.3986608825507574
11.008,2.3928071431582794
11.012,2.3898802734620403
11.016,2.3918315199261997
11.02,2.3941079741343856
11.024,2.3934575586463325
11.028,2.3960592205985449
11.032,2.4028885832231026
11.036,2.399636505782837
11.04,2.3973600515746512
11.044,2.4054902451753151
11.048,2.4171977239602711
11.052,2.4142708542640321
11.056,2.3928071431582794
11.06,2.3596359532675706
11.064,2.3300420485611539
11.068,2.3293916330731008
11.072,2.4002869212708902
11.076,2.5554110151715577
11.08,2.7508608693315182
11.084,2.9528148783720098
11.088,3.1528176409483422
11.092,3.3105433968012221
11.096,3.3550968577328604
11.1,3.1694032358936965
11.104,2.7440315067069605
11.108,2.3892298579739872
11.112,2.2747567320766393
11.116,2.2763827707967721
11.12,2.2929683657421265
11.124,2.3241883091686759
11.128,2.3687417701003142
11.132,2.4071162838954479
11.136,2.4272791640250944
11.14,2.4321572801854927
11.144,2.4357345653697848
11.148,2.4324824879295193
11.152,2.4233766710967757
11.156,2.4181733471923508
11.16,2.4211002168885898
11.164,2.4269539562810678
11.168,2.4302060337213334
11.172,2.4246775020728819
11.176,2.4227262556087226
11.18,2.425327917560935
11.184,2.4347589421377052
11.188,2.4464664209226612
11.192,2.4594747306837235
11.196,2.4689057552604936
11.2,2.4747594946529716
11.204,2.4620763926359359
11.208,2.4529705758031923
11.212,2.4630520158680156
11.216,2.4747594946529716
11.22,2.4783367798372637
11.224,2.4789871953253169
11.228,2.4929711283184588
11.232,2.5040281916153617
11.236,2.5076054767996538
11.24,2.511182761983946
11.244,2.5193129555846099
11.248,2.5306952266255394
11.252,2.5300448111374862
11.256,2.5248414872330613
11.26,2.5329716808337253
11.264,2.5502076912671328
11.268,2.5554110151715577
11.272,2.551508522243239
11.276,2.5612647545640357
11.28,2.583053673413815
11.284,2.5960619831748772
11.288,2.5999644761031959
11.292,2.6038669690315146
11.296,2.61752569428063
11.3,2.6279323420894798
11.304,2.6305340040416922
11.308,2.6341112892259844
11.312,2.6451683525228873
11.316,2.6545993770996574
11.32,2.6477700144750997
11.324,2.6357373279461171
11.328,2.629233173065586
11.332,2.620452563976869
11.336,2.5954115676868241
11.34,2.5667932862124871
11.344,2.5446791596186813
11.348,2.522890240768902
11.352,2.497198828990804
11.356,2.4718326249567326
11.36,2.4558974454994313
11.364,2.4415883047622629
11.368,2.4233766710967757
11.372,2.4038642064551823
11.376,2.3989860902947839
11.38,2.3970348438306246
11.384,2.3915063121821731
11.388,2.3804492488852702
11.392,2.3726442630286328
11.396,2.3784980024211109
11.4,2.3784980024211109
11.404,2.3736198862607125
11.408,2.3677661468682345
11.412,2.3788232101651374
11.416,2.39085589669412
11.42,2.3863029882777482
11.424,2.3801240411412437
11.428,2.3778475869330578
11.432,2.376221548212925
11.436,2.3784980024211109
11.44,2.3784980024211109
11.444,2.3837013263255358
11.448,2.3944331818784121
11.452,2.3924819354142528
11.456,2.3771971714450046
11.46,2.3775223791890312
11.464,2.3830509108374827
11.468,2.3784980024211109
11.472,2.3742703017487656
11.476,2.3784980024211109
11.48,2.3902054812060669
11.484,2.3941079741343856
11.488,2.3882542347419076
11.492,2.3885794424859341
11.496,2.3986608825507574
11.5,2.4071162838954479
11.504,2.4009373367589433
11.508,2.3892298579739872
11.512,2.3931323509023059
11.516,2.4032137909671292
11.52,2.4009373367589433
11.524,2.3895550657180138
11.528,2.3989860902947839
11.532,2.4041894141992088
11.536,2.4025633754790761
11.54,2.3941079741343856
11.544,2.3905306889500935
11.548,2.4035389987111557
11.552,2.4132952310319524
11.556,2.4061406606633682
11.56,2.4002869212708902
11.564,2.4038642064551823
11.568,2.4054902451753151
11.572,2.4032137909671292
11.576,2.4103683613357134
11.58,2.4152464774961118
11.584,2.4123196077998728
11.588,2.4032137909671292
11.592,2.4051650374312885
11.596,2.4149212697520852
11.6,2.4272791640250944
11.604,2.4204498014005367
11.608,2.4002869212708902
11.612,2.3973600515746512
11.616,2.4045146219432354
11.62,2.4067910761514213
11.624,2.4067910761514213
11.628,2.4119944000558462
11.632,2.4158968929841649
11.636,2.4132952310319524
11.64,2.4100431535916869
11.644,2.4155716852401383
11.648,2.4201245936565101
11.652,2.4201245936565101
11.656,2.416547308472218
11.66,2.4227262556087226
11.664,2.4324824879295193
11.668,2.4334581111615989
11.672,2.4211002168885898
11.676,2.4184985549363773
11.68,2.428254787257174
11.684,2.4328076956735458
11.688,2.425327917560935
11.692,2.4240270865848288
11.696,2.4337833189056255
11.7,2.4370353963458911
11.704,2.4334581111615989
11.708,2.4308564492093865
11.712,2.4350841498817317
11.716,2.4373606040899176
11.72,2.4315068646974396
11.724,2.4237018788408022
11.728,2.431181656953413
11.732,2.4441899667144753
11.736,2.4415883047622629
11.74,2.4370353963458911
11.744,2.4402874737861566
11.748,2.4487428751308471
11.752,2.4497184983629268
11.756,2.4493932906189002
11.76,2.4536209912912454
11.764,2.45979993842775
11.768,2.4565478609874845
11.772,2.4497184983629268
11.776,2.4536209912912454
11.78,2.4620763926359359
11.784,2.4643528468441218
11.788,2.4562226532434579
11.792,2.4516697448270861
11.796,2.4581738997076172
11.8,2.4663040933082812
11.804,2.4604503539158031
11.808,2.4575234842195641
11.812,2.4659788855642546
11.816,2.462726808123989
11.82,2.453946199035272
11.824,2.4523201603151392
11.828,2.468580547516467
11.832,2.4932963360624854
11.836,2.5115079697279725
11.84,2.5137844239361584
11.844,2.5154104626562912
11.848,2.5134592161921319
11.852,2.4965484135027509
11.856,2.4682553397724405
11.86,2.4529705758031923
11.864,2.4588243151956704
11.868,2.4637024313560687
11.872,2.45979993842775
11.876,2.4620763926359359
11.88,2.4643528468441218
11.884,2.462726808123989
11.888,2.4620763926359359
11.892,2.4532957835472189
11.896,2.4487428751308471
11.9,2.4435395512264222
11.904,2.4357345653697848
11.908,2.4298808259773068
11.912,2.4458160054346081
11.916,2.456873068731511
11.92,2.4331329034175724
11.924,2.3817500798613764
11.928,2.3599611610115971
11.932,2.3931323509023059
11.936,2.491345089598326
11.94,2.6513472996593919
11.944,2.8536265164439101
11.948,3.0819223527505528
11.952,3.3027384109445848
11.956,3.4588381280773319
11.96,3.4468054415483493
11.964,3.1827367533987854
11.968,2.7261450807854999
11.972,2.4084171148715541
11.976,2.3066270909912419
11.98,2.3147572845919058
11.984,2.3466276435065083
11.988,2.3866281960217748
11.992,2.4276043717691209
11.996,2.4503689138509799
12,2.4523201603151392
12.004,2.4490680828748737
12.008,2.4435395512264222
12.012,2.4536209912912454
12.016,2.4633772236120421
12.02,2.4545966145233251
12.024,2.4497184983629268
12.028,2.4532957835472189
12.032,2.4604503539158031
12.036,2.4487428751308471
12.04,2.4415883047622629
12.044,2.4578486919635907
12.048,2.4646780545881484
12.052,2.4588243151956704
12.056,2.4532957835472189
12.06,2.4571982764755376
12.064,2.4734586636768654
12.068,2.47963761081337
12.072,2.4783367798372637
12.076,2.4802880263014231
12.08,2.4955727902706712
12.084,2.5030525683832821
12.088,2.4926459205744322
12.092,2.4841905192297418
12.096,2.4923207128304057
12.1,2.5063046458235476
12.104,2.5089063077757601
12.108,2.511182761983946
12.112,2.5160608781443443
12.116,2.5329716808337253
12.12,2.5489068602910265
12.124,2.5476060293149203
12.128,2.5557362229155842
12.132,2.5651672474923544
12.136,2.5752486875571776
12.14,2.5879317895742133
12.144,2.6028913457994349
12.148,2.6207777717208955
12.152,2.6311844195297454
12.156,2.6282575498335063
12.16,2.6298835885536391
12.164,2.6510220919153653
12.168,2.6598027010040823
12.172,2.6448431447788607
12.176,2.6532985461235512
12.18,2.66663206362864
12.184,2.6685833100927994
12.188,2.6552497925877105
12.192,2.6363877434341703
12.196,2.6295583808096126
12.2,2.6230542259290814
12.204,2.603541761287488
12.208,2.5856553353660274
12.212,2.5596387158439029
12.216,2.5329716808337253
12.22,2.5037029838713352
12.224,2.476710741117131
12.228,2.4571982764755376
12.232,2.4406126815301832
12.236,2.4315068646974396
12.24,2.416547308472218
12.244,2.4084171148715541
12.248,2.4051650374312885
12.252,2.3993112980388105
12.256,2.3837013263255358
12.26,2.3853273650456686
12.264,2.3934575586463325
12.268,2.3934575586463325
12.272,2.3830509108374827
12.276,2.3807744566292968
12.28,2.3872786115098279
12.284,2.3915063121821731
12.288,2.3824004953494295
12.292,2.3846769495576154
12.296,2.3885794424859341
12.3,2.3853273650456686
12.304,2.3797988333972171
12.308,2.3797988333972171
12.312,2.3928071431582794
12.316,2.4054902451753151
12.32,2.4064658684073947
12.324,2.3993112980388105
12.328,2.4019129599910229
12.332,2.4038642064551823
12.336,2.3989860902947839
12.34,2.3970348438306246
12.344,2.4006121290149167
12.348,2.3983356748067308
12.352,2.3876038192538545
12.356,2.382075287605403
12.36,2.3889046502299607
12.364,2.3963844283425715
12.368,2.3924819354142528
12.372,2.3827257030934561
12.376,2.3856525727896951
12.38,2.3986608825507574
12.384,2.4097179458476603
12.388,2.4074414916394744
12.392,2.4022381677350495
12.396,2.4142708542640321
12.4,2.4155716852401383
12.404,2.4110187768237665
12.408,2.41069356907974
12.412,2.4155716852401383
12.416,2.413620438775979
12.42,2.4061406606633682
12.424,2.4067910761514213
12.428,2.4071162838954479
12.432,2.4045146219432354
12.436,2.3941079741343856
12.44,2.3905306889500935
12.444,2.4067910761514213
12.448,2.4168725162162445
12.452,2.4038642064551823
12.456,2.3947583896224387
12.46,2.3963844283425715
12.464,2.41069356907974
12.468,2.4152464774961118
12.472,2.407766699383501
12.476,2.3986608825507574
12.48,2.4035389987111557
12.484,2.4080919071275275
12.488,2.4015877522469964
12.492,2.4019129599910229
12.496,2.4100431535916869
12.5,2.4071162838954479
12.504,2.3999617135268636
12.508,2.3944331818784121
12.512,2.4002869212708902
12.516,2.4093927381036337
12.52,2.3986608825507574
12.524,2.3931323509023059
12.528,2.4028885832231026
12.532,2.4139456465200055
12.536,2.4116691923118196
12.54,2.4009373367589433
12.544,2.399636505782837
12.548,2.4080919071275275
12.552,2.4139456465200055
12.556,2.4110187768237665
12.56,2.4214254246326163
12.564,2.4240270865848288
12.568,2.4145960620080587
12.572,2.4071162838954479
12.576,2.407766699383501
12.58,2.4178481394483242
12.584,2.4168725162162445
12.588,2.4110187768237665
12.592,2.4103683613357134
12.596,2.4233766710967757
12.6,2.4292304104892537
12.604,2.4233766710967757
12.608,2.41069356907974
12.612,2.407766699383501
12.616,2.4175229317042977
12.62,2.4263035407930147
12.624,2.4289052027452271
12.628,2.431181656953413
12.632,2.4263035407930147
12.636,2.4129700232879259
12.64,2.4090675303596072
12.644,2.4178481394483242
12.648,2.4276043717691209
12.652,2.4285799950012006
12.656,2.4230514633527491
12.66,2.4201245936565101
12.664,2.4272791640250944
12.668,2.4279295795131475
12.672,2.4237018788408022
12.676,2.4243522943288554
12.68,2.4334581111615989
12.684,2.4373606040899176
12.688,2.4315068646974396
12.692,2.4321572801854927
12.696,2.4373606040899176
12.7,2.4406126815301832
12.704,2.4373606040899176
12.708,2.4435395512264222
12.712,2.4529705758031923
12.716,2.4497184983629268
12.72,2.4441899667144753
12.724,2.4432143434823956
12.728,2.442238720250316
12.732,2.445165589946555
12.736,2.4389866428100504
12.74,2.442238720250316
12.744,2.4607755616598297
12.748,2.4864669734379277
12.752,2.500125698687043
12.756,2.4955727902706712
12.76,2.4890686353901401
12.764,2.4793124030693434
12.768,2.4588243151956704
12.772,2.448092459642794
12.776,2.4493932906189002
12.78,2.4503689138509799
12.784,2.4474420441547409
12.788,2.4406126815301832
12.792,2.4389866428100504
12.796,2.4458160054346081
12.8,2.4493932906189002
12.804,2.4454907976905815
12.808,2.4376858118339442
12.812,2.4289052027452271
12.816,2.4315068646974396
12.82,2.4357345653697848
12.824,2.4376858118339442
12.828,2.4298808259773068
12.832,2.4168725162162445
12.836,2.379148417909164
12.84,2.3433755660662428
12.844,2.3586603300354909
12.848,2.4506941215950064
12.852,2.6054930077516474
12.856,2.7989916154474486
12.86,3.025336205289932
12.864,3.2640386894054245
12.868,3.4425777408760041
12.872,3.4689195681421552
12.876,3.2516807951324154
12.88,2.8061461858160328
12.884,2.4565478609874845
12.888,2.3303672563051805
12.892,2.3193101930082776
12.896,2.3365462034416851
12.9,2.3638636539399158
12.904,2.3915063121821731
12.908,2.4168725162162445
12.912,2.4363849808578379
12.916,2.448092459642794
12.92,2.442238720250316
12.924,2.4376858118339442
12.928,2.4376858118339442
12.932,2.4445151744585019
12.936,2.442238720250316
12.94,2.4383362273219973
12.944,2.4454907976905815
12.948,2.4542714067792986
12.952,2.4545966145233251
12.956,2.4484176673868205
12.96,2.4493932906189002
12.964,2.4646780545881484
12.968,2.4711822094686795
12.972,2.4708570017246529
12.976,2.4676049242843874
12.98,2.4692309630045202
12.984,2.4669545087963343
12.988,2.4640276391000953
12.992,2.4643528468441218
12.996,2.4728082481888123
13,2.4812636495335028
13.004,2.4858165579498746
13.008,2.4890686353901401
13.012,2.497198828990804
13.016,2.5007761141750962
13.02,2.497198828990804
13.024,2.5056542303354945
13.028,2.5180121246085037
13.032,2.5264675259531941
13.036,2.5274431491852738
13.04,2.5267927336972207
13.044,2.5371993815060705
13.048,2.5531345609633718
13.052,2.563216001028195
13.056,2.5693949481646996
13.06,2.5820780501817353
13.064,2.5999644761031959
13.068,2.6090702929359395
13.072,2.6097207084239926
13.076,2.6194769407447893
13.08,2.6360625356901437
13.084,2.6451683525228873
13.088,2.6484204299631529
13.092,2.6529733383795246
13.096,2.6620791552122682
13.1,2.6643556094204541
13.104,2.6555750003317371
13.108,2.6432171060587279
13.112,2.6276071343454532
13.116,2.6064686309837271
13.12,2.5788259727414697
13.124,2.5531345609633718
13.128,2.5251666949770879
13.132,2.5024021528952289
13.136,2.4789871953253169
13.14,2.4581738997076172
13.144,2.445165589946555
13.148,2.4298808259773068
13.152,2.4080919071275275
13.156,2.3918315199261997
13.16,2.3876038192538545
13.164,2.3830509108374827
13.168,2.3723190552846063
13.172,2.3641888616839424
13.176,2.365164484916022
13.18,2.3713434320525266
13.184,2.3700426010764204
13.188,2.3667905236361548
13.192,2.3658149004040752
13.196,2.3658149004040752
13.2,2.365164484916022
13.204,2.3580099145474378
13.208,2.3502049286908004
13.212,2.3537822138750926
13.216,2.359310745523544
13.22,2.3638636539399158
13.224,2.3680913546122611
13.228,2.3788232101651374
13.232,2.3846769495576154
13.236,2.3810996643733233
13.24,2.3658149004040752
13.244,2.3615871997317299
13.248,2.3677661468682345
13.252,2.3628880307078362
13.256,2.3596359532675706
13.26,2.3664653158921283
13.264,2.3768719637009781
13.268,2.3788232101651374
13.272,2.3713434320525266
13.276,2.3745955094927922
13.28,2.3807744566292968
13.284,2.3814248721173499
13.288,2.3768719637009781
13.292,2.3788232101651374
13.296,2.3898802734620403
13.3,2.3947583896224387
13.304,2.3892298579739872
13.308,2.3866281960217748
13.312,2.3915063121821731
13.316,2.3960592205985449
13.32,2.3934575586463325
13.324,2.3924819354142528
13.328,2.4019129599910229
13.332,2.4061406606633682
13.336,2.3970348438306246
13.34,2.3843517418135889
13.344,2.3866281960217748
13.348,2.3957340128545184
13.352,2.3993112980388105
13.356,2.3918315199261997
13.36,2.3918315199261997
13.364,2.396709636086598
13.368,2.4025633754790761
13.372,2.3983356748067308
13.376,2.3941079741343856
13.38,2.3976852593186777
13.384,2.3921567276702262
13.388,2.3869534037658013
13.392,2.3856525727896951
13.396,2.3911811044381466
13.4,2.3924819354142528
13.404,2.3866281960217748
13.408,2.3853273650456686
13.412,2.3950835973664653
13.416,2.4006121290149167
13.42,2.3947583896224387
13.424,2.3931323509023059
13.428,2.3986608825507574
13.432,2.4032137909671292
13.436,2.3993112980388105
13.44,2.396709636086598
13.444,2.3980104670627043
13.448,2.4028885832231026
13.452,2.3989860902947839
13.456,2.3921567276702262
13.46,2.3960592205985449
13.464,2.4032137909671292
13.468,2.4032137909671292
13.472,2.3976852593186777
13.476,2.4002869212708902
13.48,2.4116691923118196
13.484,2.4197993859124836
13.488,2.419474178168457
13.492,2.4191489704244304
13.496,2.4220758401206695
13.5,2.4230514633527491
13.504,2.4145960620080587
13.508,2.4103683613357134
13.512,2.4181733471923508
13.516,2.4272791640250944
13.52,2.4240270865848288
13.524,2.4217506323766429
13.528,2.4292304104892537
13.532,2.4357345653697848
13.536,2.4350841498817317
13.54,2.4328076956735458
13.544,2.4347589421377052
13.548,2.4376858118339442
13.552,2.434108526649652
13.556,2.4292304104892537
13.56,2.4344337343936786
13.564,2.4425639279943425
13.568,2.4383362273219973
13.572,2.4331329034175724
13.576,2.4334581111615989
13.58,2.4412630970182363
13.584,2.4399622660421301
13.588,2.4298808259773068
13.592,2.4292304104892537
13.596,2.434108526649652
13.6,2.4402874737861566
13.604,2.4354093576257583
13.608,2.4334581111615989
13.612,2.4412630970182363
13.616,2.4464664209226612
13.62,2.4415883047622629
13.624,2.4415883047622629
13.628,2.453946199035272
13.632,2.4581738997076172
13.636,2.4581738997076172
13.64,2.4519949525711127
13.644,2.4513445370830595
13.648,2.4542714067792986
13.652,2.4497184983629268
13.656,2.4438647589704487
13.66,2.4474420441547409
13.664,2.4575234842195641
13.668,2.4575234842195641
13.672,2.4545966145233251
13.676,2.4578486919635907
13.68,2.4637024313560687
13.684,2.4650032623321749
13.688,2.4643528468441218
13.692,2.4640276391000953
13.696,2.4682553397724405
13.7,2.4682553397724405
13.704,2.4630520158680156
13.708,2.4672797165403608
13.712,2.4799628185573965
13.716,2.485491350205848
13.72,2.4867921811819542
13.724,2.4841905192297418
13.728,2.4919955050863791
13.732,2.4991500754549634
13.736,2.4968736212467775
13.74,2.4926459205744322
13.744,2.4968736212467775
13.748,2.5124835929600522
13.752,2.5241910717450082
13.756,2.5313456421135925
13.76,2.5310204343695659
13.764,2.5271179414412472
13.768,2.5163860858883709
13.772,2.5017517374071758
13.776,2.4939467515505385
13.78,2.4893938431341667
13.784,2.4783367798372637
13.788,2.4640276391000953
13.792,2.4617511848919094
13.796,2.4747594946529716
13.8,2.4838653114857152
13.804,2.4812636495335028
13.808,2.4773611566051841
13.812,2.4828896882536355
13.816,2.4809384417894762
13.82,2.4728082481888123
13.824,2.4640276391000953
13.828,2.4702065862365998
13.832,2.4734586636768654
13.836,2.4477672518987674
13.84,2.3980104670627043
13.844,2.3632132384518627
13.848,2.3778475869330578
13.852,2.4601251461717766
13.856,2.6113467471441254
13.86,2.8136259639286436
13.864,3.056881356460508
13.868,3.2926569708797615
13.872,3.4611145822855178
13.876,3.5007899270567577
13.88,3.315746720705647
13.884,2.9030580935359467
13.888,2.5719966101169121
13.892,2.4477672518987674
13.896,2.4240270865848288
13.9,2.4350841498817317
13.904,2.453946199035272
13.908,2.4650032623321749
13.912,2.4715074172127061
13.916,2.4721578327007592
13.92,2.4637024313560687
13.924,2.4536209912912454
13.928,2.4500437061069533
13.932,2.4490680828748737
13.936,2.4428891357383691
13.94,2.4337833189056255
13.944,2.4363849808578379
13.948,2.4435395512264222
13.952,2.4445151744585019
13.956,2.4435395512264222
13.96,2.4464664209226612
13.964,2.4519949525711127
13.968,2.4513445370830595
13.972,2.4474420441547409
13.976,2.451019329339033
13.98,2.4584991074516438
13.984,2.462726808123989
13.988,2.462726808123989
13.992,2.4617511848919094
13.996,2.4669545087963343
14,2.4695561707485467
14.004,2.4643528468441218
14.008,2.4637024313560687
14.012,2.4672797165403608
14.016,2.4747594946529716
14.02,2.4757351178850513
14.024,2.4799628185573965
14.028,2.4906946741102729
14.032,2.4988248677109368
14.036,2.4998004909430165
14.04,2.5014265296631493
14.044,2.5147600471682381
14.048,2.5267927336972207
14.052,2.5310204343695659
14.056,2.5371993815060705
14.06,2.5495572757790796
14.064,2.5638664165162481
14.068,2.5700453636527527
14.072,2.5768747262773104
14.076,2.5908586592704523
14.08,2.6019157225673553
14.084,2.6077694619598333
14.088,2.6113467471441254
14.092,2.6162248633045238
14.096,2.626306303369347
14.1,2.6256558878812939
14.104,2.6152492400724441
14.108,2.6067938387277536
14.112,2.6032165535434615
14.116,2.5898830360383727
14.12,2.5641916242602747
14.124,2.5407766666903626
14.128,2.5251666949770879
14.132,2.5043533993593883
14.136,2.4734586636768654
14.14,2.4445151744585019
14.144,2.4308564492093865
14.148,2.4211002168885898
14.152,2.3999617135268636
14.156,2.3788232101651374
14.16,2.3700426010764204
14.164,2.3697173933323938
14.168,2.3664653158921283
14.172,2.3580099145474378
14.176,2.3583351222914644
14.18,2.3638636539399158
14.184,2.3615871997317299
14.188,2.356383875827305
14.192,2.3599611610115971
14.196,2.3700426010764204
14.2,2.3719938475405797
14.204,2.3719938475405797
14.208,2.3768719637009781
14.212,2.3840265340695623
14.216,2.3905306889500935
14.22,2.3856525727896951
14.224,2.3853273650456686
14.228,2.3918315199261997
14.232,2.3950835973664653
14.236,2.3892298579739872
14.24,2.3902054812060669
14.244,2.4006121290149167
14.248,2.4097179458476603
14.252,2.4110187768237665
14.256,2.4074414916394744
14.26,2.41069356907974
14.264,2.4129700232879259
14.268,2.4103683613357134
14.272,2.4071162838954479
14.276,2.4093927381036337
14.28,2.4178481394483242
14.284,2.4207750091445632
14.288,2.4188237626804039
14.292,2.4204498014005367
14.296,2.4269539562810678
14.3,2.4289052027452271
14.304,2.4233766710967757
14.308,2.425327917560935
14.312,2.4308564492093865
14.316,2.4360597731138114
14.32,2.4328076956735458
14.324,2.4285799950012006
14.328,2.4328076956735458
14.332,2.4428891357383691
14.336,2.4441899667144753
14.34,2.4493932906189002
14.344,2.4575234842195641
14.348,2.4650032623321749
14.352,2.465653677820228
14.356,2.4633772236120421
14.36,2.4653284700762015
14.364,2.4747594946529716
14.368,2.4750847023969982
14.372,2.4695561707485467
14.376,2.4724830404447857
14.38,2.4750847023969982
14.384,2.4757351178850513
14.388,2.4741090791649185
14.392,2.473783871420892
14.396,2.4776863643492106
14.4,2.4728082481888123
14.404,2.4607755616598297
14.408,2.4552470300113782
14.412,2.4620763926359359
14.416,2.4607755616598297
14.42,2.4552470300113782
14.424,2.4506941215950064
14.428,2.4565478609874845
14.432,2.4571982764755376
14.436,2.4513445370830595
14.44,2.448092459642794
14.444,2.4529705758031923
14.448,2.4607755616598297
14.452,2.45979993842775
14.456,2.4552470300113782
14.46,2.4565478609874845
14.464,2.4578486919635907
14.468,2.4506941215950064
14.472,2.4415883047622629
14.476,2.4477672518987674
14.48,2.4571982764755376
14.484,2.4523201603151392
14.488,2.4464664209226612
14.492,2.4477672518987674
14.496,2.4516697448270861
14.5,2.4477672518987674
14.504,2.4396370582981035
14.508,2.4380110195779707
14.512,2.4425639279943425
14.516,2.4438647589704487
14.52,2.4367101886018645
14.524,2.4302060337213334
14.528,2.4373606040899176
14.532,2.4425639279943425
14.536,2.4425639279943425
14.54,2.4412630970182363
14.544,2.4464664209226612
14.548,2.4493932906189002
14.552,2.4419135125062894
14.556,2.4360597731138114
14.56,2.4412630970182363
14.564,2.448092459642794
14.568,2.4467916286666878
14.572,2.4461412131786346
14.576,2.4506941215950064
14.58,2.4565478609874845
14.584,2.451019329339033
14.588,2.4402874737861566
14.592,2.4376858118339442
14.596,2.4412630970182363
14.6,2.4412630970182363
14.604,2.4373606040899176
14.608,2.4373606040899176
14.612,2.4461412131786346
14.616,2.4474420441547409
14.62,2.4412630970182363
14.624,2.4396370582981035
14.628,2.445165589946555
14.632,2.4461412131786346
14.636,2.4396370582981035
14.64,2.4419135125062894
14.644,2.451019329339033
14.648,2.4555722377554048
14.652,2.4545966145233251
14.656,2.4519949525711127
14.66,2.4552470300113782
14.664,2.4611007694038562
14.668,2.4565478609874845
14.672,2.4467916286666878
14.676,2.4458160054346081
14.68,2.4490680828748737
14.684,2.4445151744585019
14.688,2.4370353963458911
14.692,2.4357345653697848
14.696,2.4406126815301832
14.7,2.4415883047622629
14.704,2.4357345653697848
14.708,2.4370353963458911
14.712,2.4471168364107143
14.716,2.4558974454994313
14.72,2.453946199035272
14.724,2.4545966145233251
14.728,2.4718326249567326
14.732,2.4900442586222198
14.736,2.4939467515505385
14.74,2.4893938431341667
14.744,2.4903694663662463
14.748,2.4897190508781932
14.752,2.4802880263014231
14.756,2.4682553397724405
14.76,2.4630520158680156
14.764,2.4604503539158031
14.768,2.453946199035272
14.772,2.448092459642794
14.776,2.4493932906189002
14.78,2.4523201603151392
14.784,2.4513445370830595
14.788,2.4435395512264222
14.792,2.4474420441547409
14.796,2.4536209912912454
14.8,2.4542714067792986
14.804,2.4578486919635907
14.808,2.4607755616598297
14.812,2.4549218222673517
14.816,2.4217506323766429
14.82,2.3654896926600486
14.824,2.3401234886259772
14.828,2.3840265340695623
14.832,2.5017517374071758
14.836,2.6594774932600558
14.84,2.8630575410206802
14.844,3.0952558702556416
14.848,3.28712843923131
14.852,3.3999755264085252
14.856,3.3508691570605151
14.86,3.0575317719485611
14.864,2.6854941127821803
14.868,2.4893938431341667
14.872,2.4321572801854927
14.876,2.4370353963458911
14.88,2.4630520158680156
14.884,2.4698813784925733
14.888,2.4575234842195641
14.892,2.4532957835472189
14.896,2.4591495229396969
14.9,2.4601251461717766
14.904,2.4513445370830595
14.908,2.448092459642794
14.912,2.4484176673868205
14.916,2.4454907976905815
14.92,2.4389866428100504
14.924,2.4357345653697848
14.928,2.4432143434823956
14.932,2.448092459642794
14.936,2.4454907976905815
14.94,2.4454907976905815
14.944,2.4526453680591658
14.948,2.4584991074516438
14.952,2.4581738997076172
14.956,2.4581738997076172
14.96,2.4676049242843874
14.964,2.4812636495335028
14.968,2.4874425966700073
14.972,2.4851661424618214
14.976,2.4861417656939011
14.98,2.4919955050863791
14.984,2.4926459205744322
14.988,2.4890686353901401
14.992,2.4962232057587244
14.996,2.5085811000317335
15,2.5150852549122646
15.004,2.5131340084481053
15.008,2.5173617091204505
15.012,2.5267927336972207
15.016,2.5280935646733269
15.02,2.52874398016138
15.024,2.5323212653456721
15.028,2.5466304060828406
15.032,2.5612647545640357
15.036,2.5619151700520888
15.04,2.5651672474923544
15.044,2.5758991030452307
15.048,2.5908586592704523
15.052,2.6028913457994349
15.056,2.6119971626321785
15.06,2.6256558878812939
15.064,2.6412658595945686
15.068,2.6477700144750997
15.072,2.6467943912430201
15.076,2.6516725074034184
15.08,2.6604531164921355
15.084,2.654924584843684
15.088,2.6406154441065155
15.092,2.6285827575775329
15.096,2.620452563976869
15.1,2.6019157225673553
15.104,2.5762243107892573
15.108,2.5524841454753187
15.112,2.5323212653456721
15.116,2.5108575542399194
15.12,2.4851661424618214
15.124,2.462726808123989
15.128,2.4500437061069533
15.132,2.4386614350660238
15.136,2.4250027098169085
15.14,2.4155716852401383
15.144,2.4132952310319524
15.148,2.4080919071275275
15.152,2.3999617135268636
15.156,2.3954088051104918
15.16,2.3921567276702262
15.164,2.3918315199261997
15.168,2.3866281960217748
15.172,2.3833761185815092
15.176,2.3882542347419076
15.18,2.3905306889500935
15.184,2.3781727946770843
15.188,2.3690669778443407
15.192,2.3768719637009781
15.196,2.3853273650456686
15.2,2.3827257030934561
15.204,2.3752459249808453
15.208,2.3726442630286328
15.212,2.3765467559569515
15.216,2.3778475869330578
15.22,2.3752459249808453
15.224,2.3755711327248719
15.228,2.3853273650456686
15.232,2.3905306889500935
15.236,2.3892298579739872
15.24,2.3827257030934561
15.244,2.379148417909164
15.248,2.3775223791890312
15.252,2.3690669778443407
15.256,2.3674409391242079
15.26,2.3784980024211109
15.264,2.3905306889500935
15.268,2.3889046502299607
15.272,2.3853273650456686
15.276,2.3895550657180138
15.28,2.3960592205985449
15.284,2.3957340128545184
15.288,2.3957340128545184
15.292,2.3980104670627043
15.296,2.4015877522469964
15.3,2.4012625445029698
15.304,2.3970348438306246
15.308,2.4032137909671292
15.312,2.4100431535916869
15.316,2.4103683613357134
15.32,2.4084171148715541
15.324,2.407766699383501
15.328,2.4162221007281914
15.332,2.4211002168885898
15.336,2.416547308472218
15.34,2.413620438775979
15.344,2.416547308472218
15.348,2.4220758401206695
15.352,2.4217506323766429
15.356,2.4237018788408022
15.36,2.428254787257174
15.364,2.4269539562810678
15.368,2.4178481394483242
15.372,2.4168725162162445
15.376,2.4217506323766429
15.38,2.4302060337213334
15.384,2.425327917560935
15.388,2.4184985549363773
15.392,2.416547308472218
15.396,2.4197993859124836
15.4,2.4217506323766429
15.404,2.4158968929841649
15.408,2.4139456465200055
15.412,2.4191489704244304
15.416,2.4197993859124836
15.42,2.4116691923118196
15.424,2.4097179458476603
15.428,2.4162221007281914
15.432,2.4204498014005367
15.436,2.4230514633527491
15.44,2.4259783330489881
15.444,2.4334581111615989
15.448,2.4367101886018645
15.452,2.4376858118339442
15.456,2.4354093576257583
15.46,2.4380110195779707
15.464,2.4399622660421301
15.468,2.4373606040899176
15.472,2.4350841498817317
15.476,2.4435395512264222
15.48,2.4464664209226612
15.484,2.4402874737861566
15.488,2.434108526649652
15.492,2.4399622660421301
15.496,2.4477672518987674
15.5,2.4471168364107143
15.504,2.4373606040899176
15.508,2.434108526649652
15.512,2.4441899667144753
15.516,2.4500437061069533
15.52,2.4454907976905815
15.524,2.4454907976905815
15.528,2.4545966145233251
15.532,2.4604503539158031
15.536,2.4552470300113782
15.54,2.4503689138509799
15.544,2.4565478609874845
15.548,2.4607755616598297
15.552,2.4571982764755376
15.556,2.4529705758031923
15.56,2.4562226532434579
15.564,2.4575234842195641
15.568,2.4523201603151392
15.572,2.4506941215950064
15.576,2.4552470300113782
15.58,2.4575234842195641
15.584,2.4565478609874845
15.588,2.4526453680591658
15.592,2.4532957835472189
15.596,2.4607755616598297
15.6,2.45979993842775
15.604,2.4555722377554048
15.608,2.4558974454994313
15.612,2.4607755616598297
15.616,2.4601251461717766
15.62,2.4545966145233251
15.624,2.4558974454994313
15.628,2.4604503539158031
15.632,2.4620763926359359
15.636,2.4607755616598297
15.64,2.4581738997076172
15.644,2.4624016003799625
15.648,2.4669545087963343
15.652,2.4617511848919094
15.656,2.4584991074516438
15.66,2.4669545087963343
15.664,2.4750847023969982
15.668,2.4724830404447857
15.672,2.4653284700762015
15.676,2.4702065862365998
15.68,2.4845157269737683
15.684,2.497198828990804
15.688,2.5046786071034148
15.692,2.5115079697279725
15.696,2.5095567232638132
15.7,2.494271959294565
15.704,2.4793124030693434
15.708,2.4708570017246529
15.712,2.465653677820228
15.716,2.4558974454994313
15.72,2.4448403822025284
15.724,2.445165589946555
15.728,2.4545966145233251
15.732,2.4565478609874845
15.736,2.4526453680591658
15.74,2.4497184983629268
15.744,2.4581738997076172
15.748,2.4620763926359359
15.752,2.4584991074516438
15.756,2.4607755616598297
15.76,2.4659788855642546
15.764,2.4620763926359359
15.768,2.4305312414653599
15.772,2.3810996643733233
15.776,2.3589855377795175
15.78,2.3885794424859341
15.784,2.4871173889259808
15.788,2.6396398208744358
15.792,2.8386669602186885
15.796,3.0562309409724548
15.8,3.2415993550675921
15.804,3.3619262203574181
15.808,3.3329827311390545
15.812,3.068588835245464
15.816,2.689396605710499
15.82,2.4744342869089451
15.824,2.4116691923118196
15.828,2.4178481394483242
15.832,2.4454907976905815
15.836,2.4594747306837235
15.84,2.4594747306837235
15.844,2.4607755616598297
15.848,2.45979993842775
15.852,2.4471168364107143
15.856,2.4376858118339442
15.86,2.4412630970182363
15.864,2.4500437061069533
15.868,2.4471168364107143
15.872,2.4458160054346081
15.876,2.4487428751308471
15.88,2.4532957835472189
15.884,2.4529705758031923
15.888,2.4516697448270861
15.892,2.4594747306837235
15.896,2.468580547516467
15.9,2.4698813784925733
15.904,2.4676049242843874
15.908,2.4676049242843874
15.912,2.4721578327007592
15.916,2.4747594946529716
15.92,2.4793124030693434
15.924,2.4851661424618214
15.928,2.4936215438065119
15.932,2.4998004909430165
15.936,2.4988248677109368
15.94,2.5017517374071758
15.944,2.5105323464958929
15.948,2.5157356704003178
15.952,2.511182761983946
15.956,2.5069550613116007
15.96,2.5137844239361584
15.964,2.5225650330248754
15.968,2.5202885788166896
15.972,2.5225650330248754
15.976,2.5342725118098315
15.98,2.5476060293149203
15.984,2.5580126771237701
15.988,2.5645168320043012
15.992,2.5729722333489917
15.996,2.5846797121339478
16,2.5892326205503196
16.004,2.5996392683591694
16.008,2.6172004865366034
16.012,2.6354121202020906
16.016,2.6464691834989935
16.02,2.649070845451206
16.024,2.654924584843684
16.028,2.6669572713726666
16.032,2.6689085178368259
16.036,2.6594774932600558
16.04,2.646143975754967
16.044,2.6363877434341703
16.048,2.6224038104410283
16.052,2.5957367754308507
16.056,2.5719966101169121
16.06,2.557362261635717
16.064,2.5440287441306282
16.068,2.5176869168644771
16.072,2.4880930121580604
16.076,2.4734586636768654
16.08,2.4581738997076172
16.084,2.4376858118339442
16.088,2.4152464774961118
16.092,2.4061406606633682
16.096,2.4054902451753151
16.1,2.3950835973664653
16.104,2.382075287605403
16.108,2.3827257030934561
16.112,2.3869534037658013
16.116,2.3846769495576154
16.12,2.379148417909164
16.124,2.3765467559569515
16.128,2.3830509108374827
16.132,2.3853273650456686
16.136,2.3801240411412437
16.14,2.3765467559569515
16.144,2.3853273650456686
16.148,2.3892298579739872
16.152,2.3837013263255358
16.156,2.3784980024211109
16.16,2.3810996643733233
16.164,2.3859777805337217
16.168,2.3833761185815092
16.172,2.3749207172368187
16.176,2.3778475869330578
16.18,2.3824004953494295
16.184,2.3742703017487656
16.188,2.3684165623562876
16.192,2.3752459249808453
16.196,2.3843517418135889
16.2,2.3856525727896951
16.204,2.376221548212925
16.208,2.3680913546122611
16.212,2.3697173933323938
16.216,2.3700426010764204
16.22,2.3690669778443407
16.224,2.3710182243085001
16.228,2.379148417909164
16.232,2.3814248721173499
16.236,2.3804492488852702
16.24,2.3817500798613764
16.244,2.3853273650456686
16.248,2.3856525727896951
16.252,2.3758963404688984
16.256,2.3719938475405797
16.26,2.379148417909164
16.264,2.387929026997881
16.268,2.3876038192538545
16.272,2.3814248721173499
16.276,2.3866281960217748
16.28,2.3989860902947839
16.284,2.4019129599910229
16.288,2.396709636086598
16.292,2.4002869212708902
16.296,2.4123196077998728
16.3,2.4061406606633682
16.304,2.3928071431582794
16.308,2.4002869212708902
16.312,2.407766699383501
16.316,2.4129700232879259
16.32,2.4090675303596072
16.324,2.4100431535916869
16.328,2.4097179458476603
16.332,2.4103683613357134
16.336,2.4058154529193416
16.34,2.4019129599910229
16.344,2.4058154529193416
16.348,2.4071162838954479
16.352,2.3954088051104918
16.356,2.3885794424859341
16.36,2.3970348438306246
16.364,2.4071162838954479
16.368,2.4074414916394744
16.372,2.4090675303596072
16.376,2.4227262556087226
16.38,2.4328076956735458
16.384,2.4279295795131475
16.388,2.425327917560935
16.392,2.4321572801854927
16.396,2.4419135125062894
16.4,2.4389866428100504
16.404,2.4357345653697848
16.408,2.4315068646974396
16.412,2.4292304104892537
16.416,2.4328076956735458
16.42,2.4380110195779707
16.424,2.4432143434823956
16.428,2.4461412131786346
16.432,2.4386614350660238
16.436,2.4240270865848288
16.44,2.4237018788408022
16.444,2.4357345653697848
16.448,2.4454907976905815
16.452,2.4438647589704487
16.456,2.4389866428100504
16.46,2.4383362273219973
16.464,2.4432143434823956
16.468,2.4425639279943425
16.472,2.4402874737861566
16.476,2.448092459642794
16.48,2.4620763926359359
16.484,2.4650032623321749
16.488,2.45979993842775
16.492,2.4601251461717766
16.496,2.4614259771478828
16.5,2.4711822094686795
16.504,2.4731334559328388
16.508,2.4708570017246529
16.512,2.468580547516467
16.516,2.4715074172127061
16.52,2.4643528468441218
16.524,2.456873068731511
16.528,2.4536209912912454
16.532,2.4581738997076172
16.536,2.4532957835472189
16.54,2.4575234842195641
16.544,2.4708570017246529
16.548,2.4809384417894762
16.552,2.4744342869089451
16.556,2.4637024313560687
16.56,2.4653284700762015
16.564,2.4754099101410247
16.568,2.4760603256290779
16.572,2.473783871420892
16.576,2.4812636495335028
16.58,2.4952475825266447
16.584,2.5095567232638132
16.588,2.517036501376424
16.592,2.5202885788166896
16.596,2.5193129555846099
16.6,2.5059794380795211
16.604,2.4848409347177949
16.608,2.468580547516467
16.612,2.4497184983629268
16.616,2.4428891357383691
16.62,2.4503689138509799
16.624,2.4584991074516438
16.628,2.4692309630045202
16.632,2.4731334559328388
16.636,2.4653284700762015
16.64,2.462726808123989
16.644,2.465653677820228
16.648,2.4591495229396969
16.652,2.4542714067792986
16.656,2.4471168364107143
16.66,2.4438647589704487
16.664,2.4269539562810678
16.668,2.3921567276702262
16.672,2.379148417909164
16.676,2.4318320724414662
16.68,2.5609395468200091
16.684,2.7472835841472261
16.688,2.9372049066587351
16.692,3.1202968665456865
16.696,3.2965594638080802
16.7,3.3921705405518878
16.704,3.2789982456306461
16.708,2.8949278999352828
16.712,2.4939467515505385
16.716,2.2926431579980999
16.72,2.2503661512746476
16.724,2.2708542391483206
16.728,2.2991473128786311
16.732,2.3371966189297382
16.736,2.3889046502299607
16.74,2.4191489704244304
16.744,2.4432143434823956
16.748,2.4581738997076172
16.752,2.4588243151956704
16.756,2.4614259771478828
16.76,2.4584991074516438
16.764,2.4549218222673517
16.768,2.453946199035272
16.772,2.4555722377554048
16.776,2.4637024313560687
16.78,2.4669545087963343
16.784,2.4578486919635907
16.788,2.4575234842195641
16.792,2.4575234842195641
16.796,2.4594747306837235
16.8,2.4637024313560687
16.804,2.4611007694038562
16.808,2.4624016003799625
16.812,2.4721578327007592
16.816,2.4744342869089451
16.82,2.4715074172127061
16.824,2.4809384417894762
16.828,2.4949223747826181
16.832,2.4910198818542995
16.836,2.4874425966700073
16.84,2.4851661424618214
16.844,2.5014265296631493
16.848,2.5196381633286364
16.852,2.5121583852160256
16.856,2.5095567232638132
16.86,2.5219146175368223
16.864,2.5319960576016456
16.868,2.5411018744343892
16.872,2.5437035363866016
16.876,2.5498824835231062
16.88,2.5638664165162481
16.884,2.5700453636527527
16.888,2.5736226488370448
16.892,2.5811024269496556
16.896,2.5973628141509835
16.9,2.6077694619598333
16.904,2.6136232013523113
16.908,2.6302087962976657
16.912,2.6441927292908076
16.916,2.6389894053863827
16.92,2.6370381589222234
16.924,2.6428918983147014
16.928,2.6471195989870466
16.932,2.6402902363624889
16.936,2.6311844195297454
16.94,2.623379433673108
16.944,2.5993140606151428
16.948,2.569069740420673
16.952,2.5398010434582829
16.956,2.5173617091204505
16.96,2.5017517374071758
16.964,2.4822392727655824
16.968,2.4542714067792986
16.972,2.4201245936565101
16.976,2.3980104670627043
16.98,2.3801240411412437
16.984,2.365164484916022
16.988,2.3567090835713316
16.992,2.3557334603392519
16.996,2.3463024357624818
17,2.330692464049207
17.004,2.3111799994076136
17.008,2.3050010522711091
17.012,2.3121556226396933
17.016,2.310204376175534
17.02,2.307277506479295
17.024,2.3137816613598261
17.028,2.318984985264251
17.032,2.318984985264251
17.036,2.3050010522711091
17.04,2.2965456509264186
17.044,2.304350636783056
17.048,2.3128060381277464
17.052,2.3004481438547373
17.056,2.2867894186056219
17.06,2.2919927425100468
17.064,2.304350636783056
17.068,2.296220443182392
17.072,2.2906919115339406
17.076,2.2984968973905779
17.08,2.3069522987352684
17.084,2.310204376175534
17.088,2.3082531297113746
17.092,2.3063018832472153
17.096,2.3056514677591622
17.1,2.3059766755031887
17.104,2.310204376175534
17.108,2.313131245871773
17.112,2.3079279219673481
17.116,2.2952448199503124
17.12,2.2880902495817281
17.124,2.2929683657421265
17.128,2.3089035451994278
17.132,2.3209362317284103
17.136,2.3150824923359323
17.14,2.3108547916635871
17.144,2.3147572845919058
17.148,2.3167085310560651
17.152,2.3079279219673481
17.156,2.3010985593427904
17.16,2.3111799994076136
17.164,2.3193101930082776
17.168,2.3202858162403572
17.172,2.3108547916635871
17.176,2.3150824923359323
17.18,2.3241883091686759
17.184,2.3238631014246494
17.188,2.3206110239843838
17.192,2.3167085310560651
17.196,2.3134564536157995
17.2,2.3017489748308435
17.204,2.2958952354383655
17.208,2.2988221051346045
17.212,2.3092287529434543
17.216,2.3163833233120386
17.22,2.3137816613598261
17.224,2.3141068691038527
17.228,2.3124808303837199
17.232,2.3176841542881448
17.236,2.3059766755031887
17.24,2.2945944044622593
17.244,2.2994725206226576
17.248,2.3085783374554012
17.252,2.3147572845919058
17.256,2.318984985264251
17.26,2.3150824923359323
17.264,2.3128060381277464
17.268,2.3128060381277464
17.272,2.3115052071516402
17.276,2.3144320768478792
17.28,2.3173589465441182
17.284,2.3222370627045166
17.288,2.3222370627045166
17.292,2.3212614394724369
17.296,2.3267899711208884
17.3,2.3280908020969946
17.304,2.3284160098410212
17.308,2.3290664253290743
17.312,2.3310176717932336
17.316,2.3368714111857116
17.32,2.350530136434827
17.324,2.3671157313801814
17.328,2.3697173933323938
17.332,2.3560586680832785
17.336,2.3544326293631457
17.34,2.365164484916022
17.344,2.3986608825507574
17.348,2.416547308472218
17.352,2.4201245936565101
17.356,2.4171977239602711
17.36,2.4100431535916869
17.364,2.3902054812060669
17.368,2.3846769495576154
17.372,2.3824004953494295
17.376,2.3804492488852702
17.38,2.3726442630286328
17.384,2.3632132384518627
17.388,2.3518309674109332
17.392,2.3586603300354909
17.396,2.3742703017487656
17.4,2.3827257030934561
17.404,2.3788232101651374
17.408,2.3771971714450046
17.412,2.3758963404688984
17.416,2.3690669778443407
17.42,2.3726442630286328
17.424,2.3807744566292968
17.428,2.3729694707726594
17.432,2.3560586680832785
17.436,2.3410991118580569
17.44,2.3788232101651374
17.444,2.5069550613116007
17.448,2.6913478521746583
17.452,2.8887489527987782
17.456,3.071515704941703
17.46,3.2481035099481232
17.464,3.3495683260844089
17.468,3.2217616826819722
17.472,2.8028941083757672
17.476,2.3950835973664653
17.48,2.2197966233361512
17.484,2.1902027186297346
17.488,2.2061378980870359
17.492,2.2373578415135853
17.496,2.2841877566534095
17.5,2.3391478653938975
17.504,2.3817500798613764
17.508,2.3918315199261997
17.512,2.3950835973664653
17.516,2.4087423226155806
17.52,2.4139456465200055
17.524,2.4204498014005367
17.528,2.4272791640250944
17.532,2.4259783330489881
17.536,2.422401047864696
17.54,2.4292304104892537
17.544,2.4347589421377052
17.548,2.434108526649652
17.552,2.4331329034175724
17.556,2.4350841498817317
17.56,2.4432143434823956
17.564,2.4584991074516438
17.568,2.4630520158680156
17.572,2.4663040933082812
17.576,2.4715074172127061
17.58,2.4711822094686795
17.584,2.4744342869089451
17.588,2.4695561707485467
17.592,2.4724830404447857
17.596,2.4822392727655824
17.6,2.4864669734379277
17.604,2.4822392727655824
17.608,2.4919955050863791
17.612,2.5092315155197866
17.616,2.5144348394242115
17.62,2.5131340084481053
17.624,2.522890240768902
17.628,2.5332968885777518
17.632,2.5492320680350531
17.636,2.5612647545640357
17.64,2.5651672474923544
17.644,2.5762243107892573
17.648,2.5833788811578415
17.652,2.5885822050622664
17.656,2.5996392683591694
17.66,2.6149240323284175
17.664,2.6279323420894798
17.668,2.6276071343454532
17.672,2.6243550569051877
17.676,2.6285827575775329
17.68,2.6282575498335063
17.684,2.6295583808096126
17.688,2.6360625356901437
17.692,2.6415910673385952
17.696,2.6363877434341703
17.7,2.6198021484888159
17.704,2.5921594902465586
17.708,2.5732974410930183
17.712,2.5612647545640357
17.716,2.5368741737620439
17.72,2.5033777761273086
17.724,2.4773611566051841
17.728,2.4633772236120421
17.732,2.4464664209226612
17.736,2.4256531253049616
17.74,2.4071162838954479
17.744,2.3986608825507574
17.748,2.3837013263255358
17.752,2.3661401081481017
17.756,2.3580099145474378
17.76,2.3570342913153581
17.764,2.356383875827305
17.768,2.347603266738588
17.772,2.3410991118580569
17.776,2.3479284744826145
17.78,2.3550830448511988
17.784,2.359310745523544
17.788,2.3521561751549598
17.792,2.3492293054587208
17.796,2.356383875827305
17.8,2.3599611610115971
17.804,2.3554082525952253
17.808,2.3609367842436768
17.812,2.3723190552846063
17.816,2.3736198862607125
17.82,2.3706930165644735
17.824,2.3723190552846063
17.828,2.379148417909164
17.832,2.3788232101651374
17.836,2.3745955094927922
17.84,2.3775223791890312
17.844,2.3863029882777482
17.848,2.3915063121821731
17.852,2.3889046502299607
17.856,2.3918315199261997
17.86,2.3970348438306246
17.864,2.3980104670627043
17.868,2.3954088051104918
17.872,2.3970348438306246
17.876,2.4002869212708902
17.88,2.4028885832231026
17.884,2.3976852593186777
17.888,2.3882542347419076
17.892,2.3960592205985449
17.896,2.4084171148715541
17.9,2.4155716852401383
17.904,2.4184985549363773
17.908,2.4197993859124836
17.912,2.4207750091445632
17.916,2.4181733471923508
17.92,2.4178481394483242
17.924,2.4211002168885898
17.928,2.4237018788408022
17.932,2.4246775020728819
17.936,2.4191489704244304
17.94,2.4207750091445632
17.944,2.422401047864696
17.948,2.4207750091445632
17.952,2.4201245936565101
17.956,2.4230514633527491
17.96,2.4321572801854927
17.964,2.4399622660421301
17.968,2.4331329034175724
17.972,2.4230514633527491
17.976,2.4250027098169085
17.98,2.4272791640250944
17.984,2.4243522943288554
17.988,2.4197993859124836
17.992,2.4237018788408022
17.996,2.4321572801854927
18,2.4376858118339442
18.004,2.4376858118339442
18.008,2.439311850554077
18.012,2.4386614350660238
18.016,2.4308564492093865
18.02,2.4230514633527491
18.024,2.4263035407930147
18.028,2.4344337343936786
18.032,2.4305312414653599
18.036,2.4256531253049616
18.04,2.4276043717691209
18.044,2.431181656953413
18.048,2.4298808259773068
18.052,2.425327917560935
18.056,2.4279295795131475
18.06,2.4370353963458911
18.064,2.4467916286666878
18.068,2.4461412131786346
18.072,2.4484176673868205
18.076,2.4633772236120421
18.08,2.47963761081337
18.084,2.4822392727655824
18.088,2.4780115720932372
18.092,2.4734586636768654
18.096,2.4663040933082812
18.1,2.4549218222673517
18.104,2.4409378892742097
18.108,2.431181656953413
18.112,2.4308564492093865
18.116,2.4240270865848288
18.12,2.4139456465200055
18.124,2.4139456465200055
18.128,2.4191489704244304
18.132,2.4220758401206695
18.136,2.4240270865848288
18.14,2.4240270865848288
18.144,2.4318320724414662
18.148,2.4360597731138114
18.152,2.4347589421377052
18.156,2.4272791640250944
18.16,2.4090675303596072
18.164,2.376221548212925
18.168,2.3586603300354909
18.172,2.4009373367589433
18.176,2.5280935646733269
18.18,2.7102099013281986
18.184,2.9144403645768762
18.188,3.1206220742897131
18.192,3.3102181890571956
18.196,3.4126586284255609
18.2,3.3053400728967972
18.204,2.9271234665939119
18.208,2.5004509064310696
18.212,2.2981716896465514
18.216,2.2659761229879223
18.22,2.2822365101892501
18.224,2.3173589465441182
18.228,2.3674409391242079
18.232,2.4015877522469964
18.236,2.4152464774961118
18.24,2.4321572801854927
18.244,2.4432143434823956
18.248,2.4386614350660238
18.252,2.4318320724414662
18.256,2.4357345653697848
18.26,2.4409378892742097
18.264,2.4454907976905815
18.268,2.4435395512264222
18.272,2.4454907976905815
18.276,2.4513445370830595
18.28,2.4604503539158031
18.284,2.4637024313560687
18.288,2.4601251461717766
18.292,2.4650032623321749
18.296,2.4754099101410247
18.3,2.4760603256290779
18.304,2.4763855333731044
18.308,2.4848409347177949
18.312,2.4945971670385916
18.316,2.4968736212467775
18.32,2.4955727902706712
18.324,2.5027273606392555
18.328,2.508255892287707
18.332,2.5063046458235476
18.336,2.4981744522228837
18.34,2.4975240367348306
18.344,2.5108575542399194
18.348,2.5232154485129286
18.352,2.5235406562569551
18.356,2.5271179414412472
18.36,2.5398010434582829
18.364,2.5495572757790796
18.368,2.5586630926118232
18.372,2.5674437017005403
18.376,2.5791511804854963
18.38,2.5898830360383727
18.384,2.5915090747585054
18.388,2.5879317895742133
18.392,2.5967123986629304
18.396,2.611671954888152
18.4,2.6178509020246565
18.404,2.6214281872089487
18.408,2.6318348350177985
18.412,2.6386641976423562
18.416,2.6334608737379313
18.42,2.6230542259290814
18.424,2.6198021484888159
18.428,2.6224038104410283
18.432,2.6136232013523113
18.436,2.6002896838472225
18.44,2.5785007649974432
18.444,2.554435391939478
18.448,2.5293943956494331
18.452,2.5020769451512024
18.456,2.4802880263014231
18.46,2.4705317939806264
18.464,2.4565478609874845
18.468,2.434108526649652
18.472,2.4171977239602711
18.476,2.4087423226155806
18.48,2.4035389987111557
18.484,2.3963844283425715
18.488,2.3856525727896951
18.492,2.3788232101651374
18.496,2.3758963404688984
18.5,2.3706930165644735
18.504,2.3658149004040752
18.508,2.3667905236361548
18.512,2.3729694707726594
18.516,2.3723190552846063
18.52,2.3645140694279689
18.524,2.3619124074757565
18.528,2.3680913546122611
18.532,2.3658149004040752
18.536,2.3654896926600486
18.54,2.3687417701003142
18.544,2.3745955094927922
18.548,2.3768719637009781
18.552,2.373294678516686
18.556,2.370367808820447
18.56,2.3778475869330578
18.564,2.3853273650456686
18.568,2.3794736256531905
18.572,2.3749207172368187
18.576,2.3788232101651374
18.58,2.3843517418135889
18.584,2.3869534037658013
18.588,2.3859777805337217
18.592,2.3895550657180138
18.596,2.3928071431582794
18.6,2.3882542347419076
18.604,2.3863029882777482
18.608,2.3885794424859341
18.612,2.3918315199261997
18.616,2.3882542347419076
18.62,2.3817500798613764
18.624,2.385002157301642
18.628,2.39085589669412
18.632,2.3898802734620403
18.636,2.3892298579739872
18.64,2.3885794424859341
18.644,2.3892298579739872
18.648,2.3892298579739872
18.652,2.3869534037658013
18.656,2.3892298579739872
18.66,2.3970348438306246
18.664,2.4006121290149167
18.668,2.396709636086598
18.672,2.3950835973664653
18.676,2.4006121290149167
18.68,2.4025633754790761
18.684,2.399636505782837
18.688,2.3976852593186777
18.692,2.4022381677350495
18.696,2.4074414916394744
18.7,2.4028885832231026
18.704,2.3983356748067308
18.708,2.4012625445029698
18.712,2.4113439845677931
18.716,2.41069356907974
18.72,2.4041894141992088
18.724,2.4012625445029698
18.728,2.4041894141992088
18.732,2.3986608825507574
18.736,2.3905306889500935
18.74,2.3931323509023059
18.744,2.4087423226155806
18.748,2.4155716852401383
18.752,2.4100431535916869
18.756,2.4071162838954479
18.76,2.4123196077998728
18.764,2.425327917560935
18.768,2.4373606040899176
18.772,2.4493932906189002
18.776,2.45979993842775
18.78,2.4620763926359359
18.784,2.4506941215950064
18.788,2.4328076956735458
18.792,2.4240270865848288
18.796,2.422401047864696
18.8,2.4184985549363773
18.804,2.416547308472218
18.808,2.4171977239602711
18.812,2.416547308472218
18.816,2.4126448155438993
18.82,2.4080919071275275
18.824,2.4054902451753151
18.828,2.4080919071275275
18.832,2.4071162838954479
18.836,2.4022381677350495
18.84,2.4032137909671292
18.844,2.4152464774961118
18.848,2.4149212697520852
18.852,2.3911811044381466
18.856,2.3547578371071722
18.86,2.338822657649871
18.864,2.3846769495576154
18.868,2.508255892287707
18.872,2.6890713979664724
18.876,2.9046841322560795
18.88,3.1180204123375006
18.884,3.2822503230709117
18.888,3.3684303752379492
18.892,3.2806242843507789
18.896,2.9430586460512131
18.9,2.5583378848677967
18.904,2.3736198862607125
18.908,2.330692464049207
18.912,2.3482536822266411
18.916,2.3866281960217748
18.92,2.416547308472218
18.924,2.4350841498817317
18.928,2.4454907976905815
18.932,2.4415883047622629
18.936,2.4315068646974396
18.94,2.4272791640250944
18.944,2.4315068646974396
18.948,2.4315068646974396
18.952,2.4276043717691209
18.956,2.4318320724414662
18.96,2.442238720250316
18.964,2.4474420441547409
18.968,2.4454907976905815
18.972,2.4477672518987674
18.976,2.4558974454994313
18.98,2.4565478609874845
18.984,2.4532957835472189
18.988,2.4523201603151392
18.992,2.4581738997076172
18.996,2.4663040933082812
19,2.4679301320284139
19.004,2.4672797165403608
19.008,2.4773611566051841
19.012,2.4841905192297418
19.016,2.482564480509609
19.02,2.4780115720932372
19.024,2.4851661424618214
19.028,2.4926459205744322
19.032,2.4958979980146978
19.036,2.4998004909430165
19.04,2.5030525683832821
19.044,2.5085811000317335
19.048,2.5105323464958929
19.052,2.5144348394242115
19.056,2.5254919027211145
19.06,2.5394758357142564
19.064,2.548581652547
19.068,2.5531345609633718
19.072,2.5622403777961154
19.076,2.5749234798131511
19.08,2.5817528424377088
19.084,2.5840292966458946
19.088,2.5885822050622664
