Timestamp,3/5/2024 9:57:26 AM
Interval,0.004
Channel name,"Input 0"
Unit,"V"
0,2.1267872085445561
0.004,2.1541046590427868
0.008,2.4350841498817317
0.012,2.4032137909671292
0.016,2.1355678176332731
0.02,2.0906891489576083
0.024,2.3986608825507574
0.028,2.4464664209226612
0.032,2.2103655987593811
0.036,2.0923151876777411
0.04,2.3697173933323938
0.044,2.4666293010523077
0.048,2.2497157357865945
0.052,2.0796320856607053
0.056,2.3371966189297382
0.06,2.5124835929600522
0.064,2.3423999428341631
0.068,2.1303644937288482
0.072,2.3092287529434543
0.076,2.5274431491852738
0.08,2.3993112980388105
0.084,2.1550802822748665
0.088,2.2549190596910194
0.092,2.5092315155197866
0.096,2.4211002168885898
0.1,2.155405490018893
0.104,2.1807716940529644
0.108,2.4702065862365998
0.112,2.4519949525711127
0.116,2.1999589509505313
0.12,2.1573567364830524
0.124,2.4578486919635907
0.128,2.4984996599669103
0.132,2.2542686442029662
0.136,2.1381694795854855
0.14,2.4272791640250944
0.144,2.5388254202262033
0.148,2.3209362317284103
0.152,2.1482509196503088
0.156,2.3892298579739872
0.16,2.5238658640009817
0.164,2.2604475913394708
0.168,1.9495489880500827
0.172,2.1528038280666806
0.176,2.5502076912671328
0.18,2.7043561619357206
0.184,2.7567146087239962
0.188,3.0559057332284283
0.192,3.3518447802925948
0.196,3.0126531032728963
0.2,2.3485788899706677
0.204,2.1586575674591586
0.208,2.4116691923118196
0.212,2.4233766710967757
0.216,2.212642052967567
0.22,2.1937800038140267
0.224,2.4981744522228837
0.228,2.5319960576016456
0.232,2.2796348482370377
0.236,2.1635356836195569
0.24,2.4523201603151392
0.244,2.5615899623080622
0.248,2.3440259815542959
0.252,2.1700398385000881
0.256,2.4259783330489881
0.26,2.5973628141509835
0.264,2.4158968929841649
0.268,2.1950808347901329
0.272,2.3853273650456686
0.276,2.611671954888152
0.28,2.4741090791649185
0.284,2.221422662056284
0.288,2.3332941260014195
0.292,2.5973628141509835
0.296,2.5193129555846099
0.3,2.2607727990834974
0.304,2.2890658728138078
0.308,2.5781755572534166
0.312,2.5550858074275311
0.316,2.2971960664144717
0.32,2.2503661512746476
0.324,2.5537849764514249
0.328,2.59768802189501
0.332,2.3524813828989863
0.336,2.2292276479129214
0.34,2.5033777761273086
0.344,2.6071190464717802
0.348,2.3941079741343856
0.352,2.2276016091927886
0.356,2.4750847023969982
0.36,2.6451683525228873
0.364,2.4682553397724405
0.368,2.2526426054828335
0.372,2.4441899667144753
0.376,2.6721605952770915
0.38,2.5378497969941236
0.384,2.2828869256773032
0.388,2.39085589669412
0.392,2.6594774932600558
0.396,2.5872813740861602
0.4,2.3235378936806228
0.404,2.3453268125304021
0.408,2.6334608737379313
0.412,2.6071190464717802
0.416,2.3410991118580569
0.42,2.2884154573257547
0.424,2.5804520114616025
0.428,2.6211029794649221
0.432,2.3749207172368187
0.436,2.2532930209708866
0.44,2.5173617091204505
0.444,2.6087450851919129
0.448,2.3671157313801814
0.452,2.172316292708274
0.456,2.4152464774961118
0.46,2.5794763882295229
0.464,2.3872786115098279
0.468,2.1576819442270789
0.472,2.3414243196020834
0.476,2.566142870724434
0.48,2.4272791640250944
0.484,2.1697146307560615
0.488,2.2822365101892501
0.492,2.5547605996835046
0.496,2.4786619875812903
0.5,2.2178453768719919
0.504,2.2523173977388069
0.508,2.5469556138268672
0.512,2.5336220963217784
0.516,2.2760575630527455
0.52,2.2311788943770807
0.524,2.5323212653456721
0.528,2.5703705713967793
0.532,2.3245135169127025
0.536,2.2074387290631421
0.54,2.4923207128304057
0.544,2.5928099057346117
0.548,2.3664653158921283
0.552,2.1863002257014159
0.556,2.4318320724414662
0.56,2.6015905148233287
0.564,2.4097179458476603
0.568,2.1817473172850441
0.572,2.3667905236361548
0.576,2.5983384373830631
0.58,2.4611007694038562
0.584,2.2058126903430093
0.588,2.3186597775202245
0.592,2.5846797121339478
0.596,2.5033777761273086
0.6,2.2389838802337181
0.604,2.2695534081722144
0.608,2.5628907932841685
0.612,2.5398010434582829
0.616,2.2734559011005331
0.62,2.2233739085204434
0.624,2.5238658640009817
0.628,2.5615899623080622
0.632,2.3063018832472153
0.636,2.1863002257014159
0.64,2.4799628185573965
0.644,2.5833788811578415
0.648,2.3515057596669067
0.652,2.1674381765478756
0.656,2.4191489704244304
0.66,2.5866309585981071
0.664,2.396709636086598
0.668,2.1729667081963271
0.672,2.3719938475405797
0.676,2.6012653070793021
0.68,2.4529705758031923
0.684,2.1836985637492035
0.688,2.2926431579980999
0.692,2.551508522243239
0.696,2.4529705758031923
0.7,2.1768692011246458
0.704,2.2113412219914608
0.708,2.5124835929600522
0.712,2.4867921811819542
0.716,2.2165445458958857
0.72,2.1697146307560615
0.724,2.4848409347177949
0.728,2.5241910717450082
0.732,2.2692282004281878
0.736,2.1498769583704416
0.74,2.4503689138509799
0.744,2.5586630926118232
0.748,2.3280908020969946
0.752,2.1453240499540698
0.756,2.4054902451753151
0.76,2.5476060293149203
0.764,2.2708542391483206
0.768,1.9433700409135781
0.772,2.1453240499540698
0.776,2.5310204343695659
0.78,2.669558933324879
0.784,2.7235434188332874
0.788,3.0529788635321893
0.792,3.3866420089034364
0.796,3.0559057332284283
0.8,2.3628880307078362
0.804,2.1570315287390258
0.808,2.41069356907974
0.812,2.4097179458476603
0.816,2.181096901796991
0.82,2.1612592294113711
0.824,2.4799628185573965
0.828,2.5222398252808489
0.832,2.2627240455476567
0.836,2.1371938563534059
0.84,2.4354093576257583
0.844,2.5492320680350531
0.848,2.318984985264251
0.852,2.1313401169609278
0.856,2.3934575586463325
0.86,2.5781755572534166
0.864,2.3941079741343856
0.868,2.1687390075239819
0.872,2.3641888616839424
0.876,2.5944359444547445
0.88,2.4432143434823956
0.884,2.1823977327730972
0.888,2.3095539606874809
0.892,2.6025661380554084
0.896,2.5163860858883709
0.9,2.2321545176091604
0.904,2.2656509152438957
0.908,2.5814276346936822
0.912,2.5635412087722216
0.916,2.2906919115339406
0.92,2.2477644893224351
0.924,2.5671184939565137
0.928,2.6087450851919129
0.932,2.3511805519228801
0.936,2.2399595034657978
0.94,2.5518337299872655
0.944,2.6604531164921355
0.948,2.431181656953413
0.952,2.2519921899947803
0.956,2.5173617091204505
0.96,2.6978520070551895
0.964,2.5095567232638132
0.968,2.2832121334213298
0.972,2.497198828990804
0.976,2.7463079609151464
0.98,2.5983384373830631
0.984,2.330692464049207
0.988,2.4500437061069533
0.992,2.7323240279220045
0.996,2.6467943912430201
1,2.3755711327248719
1.004,2.4162221007281914
1.008,2.7306979892018717
1.012,2.7050065774237737
1.016,2.4305312414653599
1.02,2.3810996643733233
1.024,2.6962259683350567
1.028,2.7349256898742169
1.032,2.4659788855642546
1.036,2.3293916330731008
1.04,2.6132979936082847
1.044,2.7173644716967829
1.048,2.4806132340454496
1.052,2.281586094701197
1.056,2.5167112936323974
1.06,2.6718353875330649
1.064,2.4591495229396969
1.068,2.2110160142474342
1.072,2.4022381677350495
1.076,2.6376885744102765
1.08,2.4887434276461136
1.084,2.2240243240084965
1.088,2.3537822138750926
1.092,2.6493960531952325
1.096,2.5615899623080622
1.1,2.2877650418377016
1.104,2.318984985264251
1.108,2.6246802646492142
1.112,2.5999644761031959
1.116,2.3232126859365962
1.12,2.2653257074998692
1.124,2.5723218178609386
1.128,2.6198021484888159
1.132,2.3609367842436768
1.136,2.2347561795613728
1.14,2.5300448111374862
1.144,2.6399650286184624
1.148,2.3989860902947839
1.152,2.2142680916876998
1.156,2.47963761081337
1.16,2.6474448067310732
1.164,2.4389866428100504
1.168,2.1876010566775221
1.172,2.3843517418135889
1.176,2.6341112892259844
1.18,2.4939467515505385
1.184,2.227276401448762
1.188,2.3365462034416851
1.192,2.6113467471441254
1.196,2.5134592161921319
1.2,2.2302032711450011
1.204,2.2666265384759754
1.208,2.5820780501817353
1.212,2.5589883003558498
1.216,2.2893910805578344
1.22,2.2545938519469928
1.224,2.5863057508540805
1.228,2.6412658595945686
1.232,2.3804492488852702
1.236,2.2432115809060633
1.24,2.5476060293149203
1.244,2.6559002080757637
1.248,2.4211002168885898
1.252,2.2315041021211073
1.256,2.4975240367348306
1.26,2.6799655811337288
1.264,2.482564480509609
1.268,2.2578459293872584
1.272,2.4822392727655824
1.276,2.7420802602428012
1.28,2.5905334515264258
1.284,2.2939439889742061
1.288,2.3950835973664653
1.292,2.6698841410689056
1.296,2.5768747262773104
1.3,2.2988221051346045
1.304,2.3378470344177913
1.308,2.6435423138027545
1.312,2.6132979936082847
1.316,2.3339445414894726
1.32,2.287439834093675
1.324,2.614598824584391
1.328,2.6653312326525338
1.332,2.4028885832231026
1.336,2.2705290314042941
1.34,2.5752486875571776
1.344,2.6841932818060741
1.348,2.445165589946555
1.352,2.2584963448753115
1.356,2.5225650330248754
1.36,2.6926486831507646
1.364,2.4663040933082812
1.368,2.1684137997799553
1.372,2.3098791684315074
1.376,2.5326464730896987
1.38,2.4965484135027509
1.384,2.465653677820228
1.388,2.8357400905224495
1.392,3.3537960267567541
1.396,3.4376996247156058
1.4,2.9625711106928065
1.404,2.5785007649974432
1.408,2.6337860814819578
1.412,2.5131340084481053
1.416,2.2363822182815056
1.42,2.2210974543122575
1.424,2.5824032579257619
1.428,2.6458187680109404
1.432,2.3824004953494295
1.436,2.2480896970664617
1.44,2.5547605996835046
1.444,2.6757378804613836
1.448,2.4396370582981035
1.452,2.2503661512746476
1.456,2.5115079697279725
1.46,2.6991528380312957
1.464,2.5089063077757601
1.468,2.2656509152438957
1.472,2.4506941215950064
1.476,2.6848436972941272
1.48,2.5443539518746547
1.484,2.287439834093675
1.488,2.4067910761514213
1.492,2.7014292922394816
1.496,2.6237046414171346
1.5,2.3368714111857116
1.504,2.3576847068034112
1.508,2.6663068558846135
1.512,2.6471195989870466
1.516,2.362237615219783
1.52,2.3030498058069497
1.524,2.626306303369347
1.528,2.6796403733897023
1.532,2.4272791640250944
1.536,2.3059766755031887
1.54,2.6051678000076208
1.544,2.7193157181609422
1.548,2.4962232057587244
1.552,2.3095539606874809
1.556,2.5723218178609386
1.56,2.7648448023246601
1.564,2.5736226488370448
1.568,2.3410991118580569
1.572,2.5385002124821767
1.576,2.7768774888536427
1.58,2.6220786026970018
1.584,2.344676397042349
1.588,2.4607755616598297
1.592,2.7537877390277572
1.596,2.6594774932600558
1.6,2.3706930165644735
1.604,2.4019129599910229
1.608,2.7118359400483314
1.612,2.680615996621782
1.616,2.3837013263255358
1.62,2.3150824923359323
1.624,2.635086912458064
1.628,2.683542866318021
1.632,2.4175229317042977
1.636,2.2835373411653563
1.64,2.5820780501817353
1.644,2.6789899579016492
1.648,2.4100431535916869
1.652,2.1924791728379205
1.656,2.4376858118339442
1.66,2.6139484090963379
1.664,2.4058154529193416
1.668,2.1599583984352648
1.672,2.3612619919877034
1.676,2.6064686309837271
1.68,2.4428891357383691
1.684,2.1651617223396897
1.688,2.2942691967182327
1.692,2.5996392683591694
1.696,2.5037029838713352
1.7,2.2077639368071686
1.704,2.2373578415135853
1.708,2.5658176629804075
1.712,2.5482564448029734
1.716,2.2744315243326128
1.72,2.2302032711450011
1.724,2.5599639235879295
1.728,2.6012653070793021
1.732,2.3108547916635871
1.736,2.169389423012035
1.74,2.4747594946529716
1.744,2.6022409303113818
1.748,2.3706930165644735
1.752,2.1749179546604864
1.756,2.4396370582981035
1.76,2.6341112892259844
1.764,2.4363849808578379
1.768,2.1863002257014159
1.772,2.3824004953494295
1.776,2.6315096272737719
1.78,2.4877678044140339
1.784,2.2188210001040716
1.788,2.3397982808819506
1.792,2.6282575498335063
1.796,2.5411018744343892
1.8,2.2575207216432318
1.804,2.2893910805578344
1.808,2.6178509020246565
1.812,2.5970376064069569
1.816,2.3095539606874809
1.82,2.247114073834382
1.824,2.5684193249326199
1.828,2.6237046414171346
1.832,2.344676397042349
1.836,2.2103655987593811
1.84,2.52874398016138
1.844,2.6604531164921355
1.848,2.4276043717691209
1.852,2.2376830492576119
1.856,2.5102071387518663
1.86,2.6972015915671363
1.864,2.4841905192297418
1.868,2.2315041021211073
1.872,2.4305312414653599
1.876,2.6799655811337288
1.88,2.5261423182091676
1.884,2.2461384506023023
1.888,2.373294678516686
1.892,2.6861445282702334
1.896,2.603541761287488
1.9,2.3040254290390294
1.904,2.3176841542881448
1.908,2.6315096272737719
1.912,2.6058182154956739
1.916,2.3173589465441182
1.92,2.2620736300596036
1.924,2.585980543110054
1.928,2.6334608737379313
1.932,2.3667905236361548
1.936,2.2419107499299571
1.94,2.5576874693797436
1.944,2.6841932818060741
1.948,2.4415883047622629
1.952,2.2409351266978774
1.956,2.5079306845436804
1.96,2.6994780457753222
1.964,2.4897190508781932
1.968,2.2367074260255322
1.972,2.4389866428100504
1.976,2.7033805387036409
1.98,2.5362237582739908
1.984,2.1921539650938939
1.988,2.2373578415135853
1.992,2.525817110465141
1.996,2.5667932862124871
2,2.5271179414412472
2.004,2.8097234710003249
2.008,3.3255029530264437
2.012,3.4406264944118448
2.016,2.9157411955529824
2.02,2.4370353963458911
2.024,2.5336220963217784
2.028,2.5157356704003178
2.032,2.2630492532916833
2.036,2.1765439933806192
2.04,2.5235406562569551
2.044,2.6624043629562948
2.048,2.4188237626804039
2.052,2.2152437149197794
2.056,2.4692309630045202
2.06,2.6643556094204541
2.064,2.4666293010523077
2.068,2.2249999472405761
2.072,2.4188237626804039
2.076,2.66663206362864
2.08,2.519963371072663
2.084,2.25296781322686
2.088,2.3736198862607125
2.092,2.6744370494852774
2.096,2.5824032579257619
2.1,2.2838625489093829
2.104,2.304350636783056
2.108,2.632160042761825
2.112,2.6172004865366034
2.116,2.3183345697761979
2.12,2.2497157357865945
2.124,2.5749234798131511
2.128,2.6367129511781968
2.132,2.3706930165644735
2.136,2.2341057640733197
2.14,2.5362237582739908
2.144,2.66663206362864
2.148,2.428254787257174
2.152,2.2282520246808417
2.156,2.4968736212467775
2.16,2.6945999296149239
2.164,2.4939467515505385
2.168,2.2513417745067272
2.172,2.4516697448270861
2.176,2.7147628097445704
2.18,2.5719966101169121
2.184,2.3023993903188966
2.188,2.419474178168457
2.192,2.7235434188332874
2.196,2.6454935602669138
2.2,2.3596359532675706
2.204,2.3840265340695623
2.208,2.7098846935841721
2.212,2.6910226444306318
2.216,2.4032137909671292
2.22,2.3423999428341631
2.224,2.6754126727173571
2.228,2.7420802602428012
2.232,2.4663040933082812
2.236,2.3202858162403572
2.24,2.6207777717208955
2.244,2.7469583764031995
2.248,2.5014265296631493
2.252,2.2936187812301796
2.256,2.5424027054104954
2.26,2.7235434188332874
2.264,2.5050038148474414
2.268,2.241260334441904
2.272,2.4178481394483242
2.276,2.6617539474682417
2.28,2.5076054767996538
2.284,2.2344309718173463
2.288,2.350530136434827
2.292,2.6500464686832856
2.296,2.5550858074275311
2.3,2.2578459293872584
2.304,2.2864642108615953
2.308,2.6217533949529752
2.312,2.6054930077516474
2.316,2.3092287529434543
2.32,2.2451628273702227
2.324,2.5781755572534166
2.328,2.6367129511781968
2.332,2.359310745523544
2.336,2.2188210001040716
2.34,2.5261423182091676
2.344,2.6617539474682417
2.348,2.4220758401206695
2.352,2.2233739085204434
2.356,2.4763855333731044
2.36,2.6731362185091712
2.364,2.4731334559328388
2.368,2.2282520246808417
2.372,2.4337833189056255
2.376,2.6991528380312957
2.38,2.5550858074275311
2.384,2.2715046546363737
2.388,2.3771971714450046
2.392,2.6815916198538616
2.396,2.5983384373830631
2.4,2.3082531297113746
2.404,2.3245135169127025
2.408,2.6419162750826217
2.412,2.6285827575775329
2.416,2.3466276435065083
2.42,2.2900414960458875
2.424,2.6191517330007628
2.428,2.6786647501576226
2.432,2.4110187768237665
2.436,2.2841877566534095
2.44,2.603541761287488
2.444,2.7407794292666949
2.448,2.5027273606392555
2.452,2.2991473128786311
2.456,2.5550858074275311
2.46,2.7515112848195713
2.464,2.5557362229155842
2.468,2.3069522987352684
2.472,2.4962232057587244
2.476,2.7563894009799697
2.48,2.6061434232397005
2.484,2.3193101930082776
2.488,2.4197993859124836
2.492,2.7167140562087297
2.496,2.6318348350177985
2.5,2.3410991118580569
2.504,2.3749207172368187
2.508,2.7170392639527563
2.512,2.7056569929118268
2.516,2.4071162838954479
2.52,2.335895787953632
2.524,2.6656564403965604
2.528,2.7362265208503231
2.532,2.4760603256290779
2.536,2.3375218266737647
2.54,2.6305340040416922
2.544,2.7453323376830667
2.548,2.4838653114857152
2.552,2.2685777849401347
2.556,2.5160608781443443
2.56,2.7202913413930219
2.564,2.5193129555846099
2.568,2.2604475913394708
2.572,2.4357345653697848
2.576,2.689396605710499
2.58,2.5466304060828406
2.584,2.2715046546363737
2.588,2.373294678516686
2.592,2.6659816481405869
2.596,2.5814276346936822
2.6,2.2835373411653563
2.604,2.2968708586704452
2.608,2.614598824584391
2.612,2.5973628141509835
2.616,2.2945944044622593
2.62,2.1915035496058408
2.624,2.4503689138509799
2.628,2.439311850554077
2.632,2.2064631058310624
2.636,2.2549190596910194
2.64,2.8097234710003249
2.644,3.2442010170198046
2.648,3.2500547564122826
2.652,3.0302143214503303
2.656,2.9128143258567434
2.66,2.738502975058509
2.664,2.3537822138750926
2.668,2.0636969062034041
2.672,2.2783340172609314
2.676,2.5703705713967793
2.68,2.4441899667144753
2.684,2.1739423314284068
2.688,2.2848381721414626
2.692,2.5876065818301868
2.696,2.5056542303354945
2.7,2.2119916374795139
2.704,2.2276016091927886
2.708,2.551508522243239
2.712,2.5430531208985485
2.716,2.258821552619338
2.72,2.2032110283907969
2.724,2.5300448111374862
2.728,2.5980132296390366
2.732,2.3472780589945614
2.736,2.2256503627286293
2.74,2.5365489660180174
2.744,2.6754126727173571
2.748,2.4477672518987674
2.752,2.2607727990834974
2.756,2.5193129555846099
2.76,2.7232182110892609
2.764,2.5277683569293004
2.768,2.2702038236602675
2.772,2.4445151744585019
2.776,2.6945999296149239
2.78,2.5489068602910265
2.784,2.2682525771961082
2.788,2.3648392771719955
2.792,2.6617539474682417
2.796,2.5840292966458946
2.8,2.2916675347660203
2.804,2.310204376175534
2.808,2.6425666905706748
2.812,2.6506968841713388
2.816,2.3716686397965532
2.82,2.3040254290390294
2.824,2.6152492400724441
2.828,2.6734614262531977
2.832,2.4168725162162445
2.836,2.2906919115339406
2.84,2.5941107367107179
2.844,2.7362265208503231
2.848,2.5027273606392555
2.852,2.2945944044622593
2.856,2.5274431491852738
2.86,2.7141123942565173
2.864,2.5098819310078397
2.868,2.2607727990834974
2.872,2.439311850554077
2.876,2.6932990986388177
2.88,2.548581652547
2.884,2.2627240455476567
2.888,2.3560586680832785
2.892,2.6419162750826217
2.896,2.5531345609633718
2.9,2.2523173977388069
2.904,2.2474392815784086
2.908,2.5466304060828406
2.912,2.5245162794890348
2.916,2.2328049330972135
2.92,2.158332359715132
2.924,2.4692309630045202
2.928,2.5196381633286364
2.932,2.241260334441904
2.936,2.0926403954217676
2.94,2.39085589669412
2.944,2.5238658640009817
2.948,2.2861390031175688
2.952,2.0861362405412365
2.956,2.3371966189297382
2.96,2.5326464730896987
2.964,2.3336193337454461
2.968,2.0884126947494224
2.972,2.2793096404930111
2.976,2.5368741737620439
2.98,2.3957340128545184
2.984,2.1170309762237594
2.988,2.2276016091927886
2.992,2.5323212653456721
2.996,2.4532957835472189
3,2.1703650462441146
3.004,2.186950641189469
3.008,2.511182761983946
3.012,2.497198828990804
3.016,2.1983329122303985
3.02,2.1189822226879187
3.024,2.4389866428100504
3.028,2.5017517374071758
3.032,2.2289024401688948
3.036,2.0897135257255286
3.04,2.3885794424859341
3.044,2.5092315155197866
3.048,2.2601223835954443
3.052,2.0552415048587136
3.056,2.3163833233120386
3.06,2.5222398252808489
3.064,2.3423999428341631
3.068,2.1193074304319452
3.072,2.3206110239843838
3.076,2.5840292966458946
3.08,2.4357345653697848
3.084,2.1508525816025212
3.088,2.2523173977388069
3.092,2.5609395468200091
3.096,2.4968736212467775
3.1,2.2178453768719919
3.104,2.235406595049426
3.108,2.5505328990111593
3.112,2.5375245892500971
3.116,2.2510165667627007
3.12,2.1882514721655753
3.124,2.5085811000317335
3.128,2.5664680784684606
3.132,2.2978464819025248
3.136,2.1557306977629196
3.14,2.4558974454994313
3.144,2.5941107367107179
3.148,2.3609367842436768
3.152,2.1628852681315038
3.156,2.4155716852401383
3.16,2.6282575498335063
3.164,2.4350841498817317
3.168,2.1820725250290707
3.172,2.3589855377795175
3.176,2.6168752787925769
3.18,2.4783367798372637
3.184,2.200934574182611
3.188,2.304350636783056
3.192,2.5970376064069569
3.196,2.5115079697279725
3.2,2.2233739085204434
3.204,2.2497157357865945
3.208,2.5843545043899212
3.212,2.5824032579257619
3.216,2.2958952354383655
3.22,2.2152437149197794
3.224,2.5267927336972207
3.228,2.5788259727414697
3.232,2.3137816613598261
3.236,2.1762187856365927
3.24,2.4711822094686795
3.244,2.5967123986629304
3.248,2.3576847068034112
3.252,2.1498769583704416
3.256,2.3515057596669067
3.26,2.4558974454994313
3.264,2.1866254334454425
3.268,1.9937772412376944
3.272,2.3723190552846063
3.276,2.9183428575051948
3.28,3.0975323244638275
3.284,3.0415965924912598
3.288,3.0578569796925876
3.292,2.9505384241638239
3.296,2.4939467515505385
3.3,2.0357290402171202
3.304,2.0380054944253061
3.308,2.4019129599910229
3.312,2.4220758401206695
3.316,2.1430475957458839
3.32,2.0871118637733161
3.324,2.4269539562810678
3.328,2.4984996599669103
3.332,2.2266259859607089
3.336,2.0822337476129178
3.34,2.3892298579739872
3.344,2.5245162794890348
3.348,2.287439834093675
3.352,2.0923151876777411
3.356,2.3638636539399158
3.36,2.5716714023728855
3.364,2.3781727946770843
3.368,2.123860338848317
3.372,2.318984985264251
3.376,2.5791511804854963
3.38,2.4308564492093865
3.384,2.143698011233937
3.388,2.2562198906671256
3.392,2.5628907932841685
3.396,2.4848409347177949
3.4,2.1950808347901329
3.404,2.2171949613839388
3.408,2.5508581067551859
3.412,2.5547605996835046
3.416,2.275732355308719
3.42,2.2090647677832749
3.424,2.5358985505299643
3.428,2.6022409303113818
3.432,2.3381722421618178
3.436,2.2032110283907969
3.44,2.5014265296631493
3.444,2.6363877434341703
3.448,2.3999617135268636
3.452,2.2006093664385844
3.456,2.4519949525711127
3.46,2.6555750003317371
3.464,2.4682553397724405
3.468,2.2253251549846027
3.472,2.4139456465200055
3.476,2.6728110107651446
3.48,2.5339473040658049
3.484,2.2581711371312849
3.488,2.3632132384518627
3.492,2.6572010390518699
3.496,2.5814276346936822
3.5,2.307277506479295
3.504,2.3293916330731008
3.508,2.6506968841713388
3.512,2.6458187680109404
3.516,2.3710182243085001
3.52,2.3033750135509763
3.524,2.6084198774478864
3.528,2.663705193932401
3.532,2.3928071431582794
3.536,2.2370326337695587
3.54,2.5118331774719991
3.544,2.6289079653215595
3.548,2.3824004953494295
3.552,2.1641860991076101
3.556,2.3970348438306246
3.56,2.5781755572534166
3.564,2.3830509108374827
3.568,2.1384946873295121
3.572,2.3173589465441182
3.576,2.5619151700520888
3.58,2.4158968929841649
3.584,2.1417467647697777
3.588,2.2614232145715505
3.592,2.5622403777961154
3.596,2.4809384417894762
3.6,2.1918287573498674
3.604,2.2136176761996467
3.608,2.5342725118098315
3.612,2.5163860858883709
3.616,2.2298780634009745
3.62,2.1687390075239819
3.624,2.4955727902706712
3.628,2.5547605996835046
3.632,2.2848381721414626
3.636,2.1469500886742026
3.64,2.4500437061069533
3.644,2.5752486875571776
3.648,2.3352453724655788
3.652,2.1404459337936714
3.656,2.4110187768237665
3.66,2.6214281872089487
3.664,2.4279295795131475
3.668,2.1778448243567254
3.672,2.3693921855883673
3.676,2.6243550569051877
3.68,2.4786619875812903
3.684,2.1976824967423454
3.688,2.3076027142233215
3.692,2.6162248633045238
3.696,2.5437035363866016
3.7,2.2565450984111521
3.704,2.2750819398206659
3.708,2.5970376064069569
3.712,2.5882569973182399
3.716,2.3046758445270825
3.72,2.2409351266978774
3.724,2.5609395468200091
3.728,2.6269567188574001
3.732,2.3671157313801814
3.736,2.2233739085204434
3.74,2.5183373323525302
3.744,2.6526481306354981
3.748,2.4149212697520852
3.752,2.2093899755273014
3.756,2.4643528468441218
3.76,2.6620791552122682
3.764,2.4607755616598297
3.768,2.209715183271328
3.772,2.3989860902947839
3.776,2.6611035319801886
3.78,2.5167112936323974
3.784,2.2295528556569479
3.788,2.3264647633768618
3.792,2.6334608737379313
3.796,2.5667932862124871
3.8,2.2809356792131439
3.804,2.2939439889742061
3.808,2.6093955006799661
3.812,2.6015905148233287
3.816,2.318984985264251
3.82,2.2562198906671256
3.824,2.580126803717576
3.828,2.6419162750826217
3.832,2.3866281960217748
3.836,2.2581711371312849
3.84,2.5560614306596108
3.844,2.6854941127821803
3.848,2.4461412131786346
3.852,2.2334553485852666
3.856,2.4715074172127061
3.86,2.6591522855160292
3.864,2.4578486919635907
3.868,2.2077639368071686
3.872,2.3970348438306246
3.876,2.6532985461235512
3.88,2.5043533993593883
3.884,2.2149185071757529
3.888,2.3215866472164635
3.892,2.6246802646492142
3.896,2.5411018744343892
3.9,2.247114073834382
3.904,2.2650004997558426
3.908,2.5892326205503196
3.912,2.5739478565810714
3.916,2.2793096404930111
3.92,2.209715183271328
3.924,2.5404514589463361
3.928,2.5970376064069569
3.932,2.2919927425100468
3.936,2.0796320856607053
3.94,2.3437007738102693
3.944,2.5476060293149203
3.948,2.5411018744343892
3.952,2.6334608737379313
3.956,3.1053373103204649
3.96,3.4942857721762266
3.964,3.2633882739173714
3.968,2.6344364969700109
3.972,2.4708570017246529
3.976,2.5762243107892573
3.98,2.4155716852401383
3.984,2.1671129688038491
3.988,2.3017489748308435
3.992,2.6165500710485503
3.996,2.5414270821784157
4,2.2542686442029662
4.004,2.2737811088445596
4.008,2.5954115676868241
4.012,2.5824032579257619
4.016,2.2939439889742061
4.02,2.2276016091927886
4.024,2.5547605996835046
4.028,2.614598824584391
4.032,2.3479284744826145
4.036,2.206788313575089
4.04,2.5189877478405833
4.044,2.6646808171644807
4.048,2.4269539562810678
4.052,2.2194714155921247
4.056,2.4715074172127061
4.06,2.6721605952770915
4.064,2.4789871953253169
4.068,2.2249999472405761
4.072,2.4041894141992088
4.076,2.6601279087481089
4.08,2.5098819310078397
4.084,2.2289024401688948
4.088,2.3339445414894726
4.092,2.6412658595945686
4.096,2.5745982720691245
4.1,2.284512964397436
4.104,2.2936187812301796
4.108,2.623379433673108
4.112,2.6253306801372673
4.116,2.3508553441788536
4.12,2.2864642108615953
4.124,2.614598824584391
4.128,2.6871201515023131
4.132,2.4181733471923508
4.136,2.2623988378036302
4.14,2.5554110151715577
4.144,2.6939495141268708
4.148,2.462726808123989
4.152,2.258821552619338
4.156,2.5011013219191227
4.16,2.7024049154715613
4.164,2.5043533993593883
4.168,2.2461384506023023
4.172,2.4246775020728819
4.176,2.6773639191815164
4.18,2.5342725118098315
4.184,2.2578459293872584
4.188,2.3700426010764204
4.192,2.6815916198538616
4.196,2.6093955006799661
4.2,2.3092287529434543
4.204,2.3108547916635871
4.208,2.6253306801372673
4.212,2.6051678000076208
4.216,2.3033750135509763
4.22,2.2220730775443371
4.224,2.542727913154522
4.228,2.5911838670144789
4.232,2.2971960664144717
4.236,2.1342669866571669
4.24,2.4321572801854927
4.244,2.5667932862124871
4.248,2.3206110239843838
4.252,2.1066243284149095
4.256,2.3619124074757565
4.26,2.5641916242602747
4.264,2.365164484916022
4.268,2.1150797297596
4.272,2.3137816613598261
4.276,2.5788259727414697
4.28,2.4305312414653599
4.284,2.1505273738584947
4.288,2.2640248765237629
4.292,2.5736226488370448
4.296,2.4919955050863791
4.3,2.1937800038140267
4.304,2.206788313575089
4.308,2.5388254202262033
4.312,2.5202885788166896
4.316,2.2204470388242044
4.32,2.1498769583704416
4.324,2.4887434276461136
4.328,2.5541101841954514
4.332,2.284512964397436
4.336,2.143698011233937
4.34,2.4565478609874845
4.344,2.583053673413815
4.348,2.3258143478888087
4.352,2.1095511981111486
4.356,2.3810996643733233
4.36,2.5876065818301868
4.364,2.3814248721173499
4.368,2.131990532448981
4.372,2.3368714111857116
4.376,2.6067938387277536
4.38,2.4578486919635907
4.384,2.1732919159403536
4.388,2.2884154573257547
4.392,2.6100459161680192
4.396,2.5398010434582829
4.4,2.2445124118821695
4.404,2.2594719681073911
4.408,2.5996392683591694
4.412,2.6022409303113818
4.416,2.3222370627045166
4.42,2.2607727990834974
4.424,2.5954115676868241
4.428,2.6575262467958964
4.432,2.3758963404688984
4.436,2.2269511937047355
4.44,2.5349229272978846
4.444,2.6789899579016492
4.448,2.4399622660421301
4.452,2.2289024401688948
4.456,2.4783367798372637
4.46,2.6822420353419147
4.464,2.4809384417894762
4.468,2.2285772324248683
4.472,2.4259783330489881
4.476,2.6903722289425787
4.48,2.5332968885777518
4.484,2.2360570105374791
4.488,2.3440259815542959
4.492,2.6715101797890384
4.496,2.5986636451270897
4.5,2.2884154573257547
4.504,2.2997977283666842
4.508,2.635086912458064
4.512,2.6259810956253204
4.516,2.330692464049207
4.52,2.2545938519469928
4.524,2.5960619831748772
4.528,2.6552497925877105
4.532,2.3671157313801814
4.536,2.2207722465682309
4.54,2.5463051983388141
4.544,2.6955755528470036
4.548,2.4493932906189002
4.552,2.2302032711450011
4.556,2.4890686353901401
4.56,2.6812664121098351
4.564,2.4624016003799625
4.568,2.1986581199744251
4.572,2.399636505782837
4.576,2.6737866339972243
4.58,2.5189877478405833
4.584,2.2227234930323903
4.588,2.3401234886259772
4.592,2.6672824791166931
4.596,2.5885822050622664
4.6,2.2851633798854891
4.604,2.2971960664144717
4.608,2.6347617047140375
4.612,2.6198021484888159
4.616,2.3215866472164635
4.62,2.2519921899947803
4.624,2.5908586592704523
4.628,2.6555750003317371
4.632,2.3550830448511988
4.636,2.1476005041622557
4.64,2.4071162838954479
4.644,2.5495572757790796
4.648,2.4477672518987674
4.652,2.5027273606392555
4.656,2.9957423005835153
4.66,3.4243661072105169
4.664,3.2848519850231241
4.668,2.7141123942565173
4.672,2.5303700188815128
4.676,2.6022409303113818
4.68,2.4019129599910229
4.684,2.1352426098892465
4.688,2.2783340172609314
4.692,2.6230542259290814
4.696,2.557362261635717
4.7,2.2633744610357098
4.704,2.2851633798854891
4.708,2.6256558878812939
4.712,2.6194769407447893
4.716,2.3186597775202245
4.72,2.2425611654180102
4.724,2.5745982720691245
4.728,2.6396398208744358
4.732,2.3550830448511988
4.736,2.200934574182611
4.74,2.5105323464958929
4.744,2.6562254158197902
4.748,2.4191489704244304
4.752,2.2054874825989828
4.756,2.4731334559328388
4.76,2.6854941127821803
4.764,2.4705317939806264
4.768,2.2032110283907969
4.772,2.3924819354142528
4.776,2.6750874649733305
4.78,2.534597719553858
4.784,2.2396342957217712
4.788,2.3365462034416851
4.792,2.6467943912430201
4.796,2.5641916242602747
4.8,2.2601223835954443
4.804,2.2796348482370377
4.808,2.6279323420894798
4.812,2.6185013175127096
4.816,2.3118304148956668
4.82,2.2516669822507538
4.824,2.6126475781202316
4.828,2.6897218134545255
4.832,2.4041894141992088
4.836,2.2480896970664617
4.84,2.5648420397483278
4.844,2.7108603168162517
4.848,2.4663040933082812
4.852,2.2510165667627007
4.856,2.5183373323525302
4.86,2.7407794292666949
4.864,2.5398010434582829
4.868,2.2741063165885862
4.872,2.4633772236120421
4.876,2.7381777673144825
4.88,2.5905334515264258
4.884,2.2981716896465514
4.888,2.4015877522469964
4.892,2.7173644716967829
4.896,2.6289079653215595
4.9,2.32191185496049
4.904,2.3342697492334992
4.908,2.6663068558846135
4.912,2.638013782154303
4.916,2.3157329078239854
4.92,2.2289024401688948
4.924,2.5697201559087262
4.928,2.6334608737379313
4.932,2.3427251505781896
4.936,2.186950641189469
4.94,2.5037029838713352
4.944,2.6402902363624889
4.948,2.3710182243085001
4.952,2.1371938563534059
4.956,2.4022381677350495
4.96,2.6126475781202316
4.964,2.4002869212708902
4.968,2.1404459337936714
4.972,2.3433755660662428
4.976,2.6217533949529752
4.98,2.4679301320284139
4.984,2.1726415004523005
4.988,2.2900414960458875
4.992,2.6158996555604972
4.996,2.5274431491852738
5,2.2142680916876998
5.004,2.2328049330972135
5.008,2.5879317895742133
5.012,2.5762243107892573
5.016,2.2653257074998692
5.02,2.1915035496058408
5.024,2.5508581067551859
5.028,2.6198021484888159
5.032,2.3209362317284103
5.036,2.1615844371553976
5.04,2.4893938431341667
5.044,2.6402902363624889
5.048,2.3915063121821731
5.052,2.1820725250290707
5.056,2.4487428751308471
5.06,2.6585018700279761
5.064,2.4425639279943425
5.068,2.1742675391724333
5.072,2.3856525727896951
5.076,2.6822420353419147
5.08,2.5450043673627079
5.084,2.2575207216432318
5.088,2.3632132384518627
5.092,2.6877705669903662
5.096,2.5967123986629304
5.1,2.2841877566534095
5.104,2.3089035451994278
5.108,2.6715101797890384
5.112,2.6754126727173571
5.116,2.373294678516686
5.12,2.2871146263496485
5.124,2.6178509020246565
5.128,2.6780143346695695
5.132,2.3827257030934561
5.136,2.2328049330972135
5.14,2.5534597687073983
5.144,2.6845184895501006
5.148,2.4087423226155806
5.152,2.189877510885708
5.156,2.4734586636768654
5.16,2.7046813696797471
5.164,2.4923207128304057
5.168,2.2204470388242044
5.172,2.419474178168457
5.176,2.6978520070551895
5.18,2.5371993815060705
5.184,2.2269511937047355
5.188,2.3349201647215523
5.192,2.6614287397242151
5.196,2.5788259727414697
5.2,2.2689029926841613
5.204,2.2926431579980999
5.208,2.6516725074034184
5.212,2.6415910673385952
5.216,2.3280908020969946
5.22,2.2565450984111521
5.224,2.614598824584391
5.228,2.677689126925543
5.232,2.3765467559569515
5.236,2.215568922663806
5.24,2.5332968885777518
5.244,2.6679328946047463
5.248,2.3980104670627043
5.252,2.1716658772202209
5.256,2.4471168364107143
5.26,2.6679328946047463
5.264,2.4500437061069533
5.268,2.1739423314284068
5.272,2.3739450940047391
5.276,2.6572010390518699
5.28,2.5040281916153617
5.284,2.2058126903430093
5.288,2.3284160098410212
5.292,2.6646808171644807
5.296,2.5706957791408058
5.3,2.2484149048104882
5.304,2.2646752920118161
5.308,2.620452563976869
5.312,2.6048425922635943
5.316,2.266951746220002
5.32,2.1427223880018573
5.324,2.4552470300113782
5.328,2.5697201559087262
5.332,2.4633772236120421
5.336,2.5687445326766465
5.34,3.091353377327323
5.344,3.4490818957565352
5.348,3.1684276126616169
5.352,2.5531345609633718
5.356,2.4731334559328388
5.36,2.5417522899224423
5.364,2.3001229361107107
5.368,2.0623960752272978
5.372,2.2994725206226576
5.376,2.6087450851919129
5.38,2.465653677820228
5.384,2.1573567364830524
5.388,2.2562198906671256
5.392,2.5739478565810714
5.396,2.4754099101410247
5.4,2.1544298667868134
5.404,2.1615844371553976
5.408,2.5157356704003178
5.412,2.5059794380795211
5.416,2.192804380581947
5.42,2.1189822226879187
5.424,2.4708570017246529
5.428,2.5401262512023095
5.432,2.2415855421859305
5.436,2.0832093708449975
5.44,2.4100431535916869
5.444,2.5567118461476639
5.448,2.2952448199503124
5.452,2.0770304237084929
5.456,2.3693921855883673
5.46,2.5941107367107179
5.464,2.3697173933323938
5.468,2.0900387334695552
5.472,2.2997977283666842
5.476,2.600614891591249
5.48,2.4545966145233251
5.484,2.1557306977629196
5.488,2.2832121334213298
5.492,2.6311844195297454
5.496,2.5563866384036373
5.5,2.244187204138143
5.504,2.2646752920118161
5.508,2.6308592117857188
5.512,2.6315096272737719
5.516,2.3310176717932336
5.52,2.2620736300596036
5.524,2.6178509020246565
5.528,2.6906974366866052
5.532,2.399636505782837
5.536,2.244187204138143
5.54,2.5765495185332838
5.544,2.7453323376830667
5.548,2.5066298535675742
5.552,2.2919927425100468
5.556,2.5664680784684606
5.56,2.7885849676385988
5.564,2.5716714023728855
5.568,2.2893910805578344
5.572,2.4828896882536355
5.576,2.7723245804372709
5.58,2.6311844195297454
5.584,2.3345949569775257
5.588,2.4337833189056255
5.592,2.7521617003076244
5.596,2.6562254158197902
5.6,2.3258143478888087
5.604,2.3245135169127025
5.608,2.6734614262531977
5.612,2.6552497925877105
5.616,2.3300420485611539
5.62,2.2445124118821695
5.624,2.59768802189501
5.628,2.6646808171644807
5.632,2.3580099145474378
5.636,2.1970320812542923
5.64,2.5206137865607161
5.644,2.6783395424135961
5.648,2.4162221007281914
5.652,2.1849993947253097
5.656,2.4601251461717766
5.66,2.7037057464476675
5.664,2.5020769451512024
5.668,2.2223982852883637
5.672,2.4155716852401383
5.676,2.6988276302872691
5.68,2.5424027054104954
5.684,2.2415855421859305
5.688,2.356383875827305
5.692,2.6959007605910301
5.696,2.6093955006799661
5.7,2.2825617179332767
5.704,2.2939439889742061
5.708,2.657851454539923
5.712,2.6601279087481089
5.716,2.3498797209467739
5.72,2.2718298623804003
5.724,2.6220786026970018
5.728,2.6880957747343928
5.732,2.3869534037658013
5.736,2.2328049330972135
5.74,2.5664680784684606
5.744,2.7206165491370484
5.748,2.4552470300113782
5.752,2.2197966233361512
5.756,2.485491350205848
5.76,2.7076082393759862
5.764,2.4903694663662463
5.768,2.2093899755273014
5.772,2.4097179458476603
5.776,2.7027301232155878
5.78,2.5407766666903626
5.784,2.2145932994317263
5.788,2.3170337388000917
5.792,2.6568758313078433
5.796,2.5723218178609386
5.8,2.2461384506023023
5.804,2.2536182287149131
5.808,2.6132979936082847
5.812,2.5983384373830631
5.816,2.2702038236602675
5.82,2.186950641189469
5.824,2.545654782850761
5.828,2.6126475781202316
5.832,2.3030498058069497
5.836,2.137844271841459
5.84,2.4783367798372637
5.844,2.6412658595945686
5.848,2.3752459249808453
5.852,2.1391451028175652
5.856,2.4155716852401383
5.86,2.6448431447788607
5.864,2.4211002168885898
5.868,2.1358930253772996
5.872,2.3375218266737647
5.876,2.6302087962976657
5.88,2.4698813784925733
5.884,2.1602836061792914
5.888,2.2702038236602675
5.892,2.6188265252567362
5.896,2.5495572757790796
5.9,2.2432115809060633
5.904,2.2571955138992053
5.908,2.6165500710485503
5.912,2.6100459161680192
5.916,2.2971960664144717
5.92,2.2158941304078326
5.924,2.5700453636527527
5.928,2.6324852505058516
5.932,2.327765594352968
5.936,2.166462553315796
5.94,2.5063046458235476
5.944,2.6705345565569587
5.948,2.407766699383501
5.952,2.1833733560051769
5.956,2.4646780545881484
5.96,2.7050065774237737
5.964,2.4978492444788571
5.968,2.2302032711450011
5.972,2.442238720250316
5.976,2.7511860770755447
5.98,2.6113467471441254
5.984,2.3199606084963307
5.988,2.4445151744585019
5.992,2.7970403689832892
5.996,2.7020797077275347
6,2.3124808303837199
6.004,2.2367074260255322
6.008,2.5957367754308507
6.012,2.7482592073793057
6.016,2.7098846935841721
6.02,2.8936270689591765
6.024,3.4064796812890563
6.028,3.5593273209815379
6.032,2.9944414696074091
6.036,2.4084171148715541
6.04,2.4962232057587244
6.044,2.5804520114616025
6.048,2.3193101930082776
6.052,2.1079251593910158
6.056,2.3957340128545184
6.06,2.6230542259290814
6.064,2.3928071431582794
6.068,2.0988193425582722
6.072,2.2900414960458875
6.076,2.5791511804854963
6.08,2.4119944000558462
6.084,2.0884126947494224
6.088,2.1872758489334956
6.092,2.5163860858883709
6.096,2.4158968929841649
6.1,2.0793068779166788
6.104,2.0861362405412365
6.108,2.4542714067792986
6.112,2.4367101886018645
6.116,2.1082503671350423
6.12,2.0272736388724297
6.124,2.41069356907974
6.128,2.4939467515505385
6.132,2.1944304193020798
6.136,2.0337777937529609
6.14,2.3719938475405797
6.144,2.5241910717450082
6.148,2.2467888660903554
6.152,2.011663667159155
6.156,2.296220443182392
6.16,2.5332968885777518
6.164,2.3170337388000917
6.168,2.0393063254014123
6.172,2.2510165667627007
6.176,2.5606143390759826
6.18,2.413620438775979
6.184,2.1059739129268564
6.188,2.2227234930323903
6.192,2.5804520114616025
6.196,2.508255892287707
6.2,2.1957312502781861
6.204,2.218495792360045
6.208,2.6058182154956739
6.212,2.6172004865366034
6.216,2.3037002212950028
6.22,2.2276016091927886
6.224,2.6054930077516474
6.228,2.6949251373589505
6.232,2.3993112980388105
6.236,2.2367074260255322
6.24,2.5664680784684606
6.244,2.732649235666031
6.248,2.4698813784925733
6.252,2.238333464745665
6.256,2.5089063077757601
6.26,2.7472835841472261
6.264,2.5391506279702298
6.268,2.2594719681073911
6.272,2.4477672518987674
6.276,2.7329744434100576
6.28,2.5635412087722216
6.284,2.2289024401688948
6.288,2.3199606084963307
6.292,2.6497212609392591
6.296,2.5541101841954514
6.3,2.2149185071757529
6.304,2.2188210001040716
6.308,2.5879317895742133
6.312,2.5794763882295229
6.316,2.2562198906671256
6.32,2.1784952398447786
6.324,2.5524841454753187
6.328,2.6334608737379313
6.332,2.3394730731379241
6.336,2.1889018876536284
6.34,2.5453295751067344
6.344,2.7232182110892609
6.348,2.4666293010523077
6.352,2.2448376196261961
6.356,2.5375245892500971
6.36,2.7882597598945722
6.364,2.5850049198779743
6.368,2.3063018832472153
6.372,2.5102071387518663
6.376,2.8136259639286436
6.38,2.6663068558846135
6.384,2.356383875827305
6.388,2.4604503539158031
6.392,2.7954143302631564
6.396,2.7076082393759862
6.4,2.3687417701003142
6.404,2.3554082525952253
6.408,2.7043561619357206
6.412,2.6809412043658085
6.416,2.3355705802096054
6.42,2.2210974543122575
6.424,2.5430531208985485
6.428,2.5892326205503196
6.432,2.2552442674350459
6.436,2.0510138041863684
6.44,2.3560586680832785
6.444,2.4871173889259808
6.448,2.192804380581947
6.452,1.9384919247531798
6.456,2.2145932994317263
6.46,2.4357345653697848
6.464,2.1950808347901329
6.468,1.8955645025416743
6.472,2.0965428883500863
6.476,2.3934575586463325
6.48,2.2233739085204434
6.484,1.8981661644938868
6.488,2.0142653291113675
6.492,2.373294678516686
6.496,2.2783340172609314
6.5,1.9420692099374719
6.504,1.9602808436029591
6.508,2.347603266738588
6.512,2.3437007738102693
6.516,2.023371145944111
6.52,1.9632077132991981
6.524,2.365164484916022
6.528,2.4536209912912454
6.532,2.1505273738584947
6.536,1.9921512025175616
6.54,2.3583351222914644
6.544,2.5368741737620439
6.548,2.281586094701197
6.552,2.0724775152921211
6.556,2.3928071431582794
6.56,2.6581766622839496
6.564,2.4474420441547409
6.568,2.1684137997799553
6.572,2.3918315199261997
6.576,2.7147628097445704
6.58,2.5781755572534166
6.584,2.2828869256773032
6.588,2.404839829687262
6.592,2.764194386836607
6.596,2.7066326161439065
6.6,2.4227262556087226
6.604,2.4702065862365998
6.608,2.8464719460753258
6.612,2.8520004777237773
6.616,2.5394758357142564
6.62,2.4689057552604936
6.624,2.844845907355193
6.628,2.9489123854436912
6.632,2.6737866339972243
6.636,2.5150852549122646
6.64,2.8315123898501042
6.644,2.9863112760067452
6.648,2.7124863555363845
6.652,2.4578486919635907
6.656,2.6998032535193488
6.66,2.9089118329284247
6.664,2.6669572713726666
6.668,2.3433755660662428
6.672,2.4968736212467775
6.676,2.7628935558605008
6.68,2.5833788811578415
6.684,2.2194714155921247
6.688,2.2653257074998692
6.692,2.5381750047381502
6.696,2.3410991118580569
6.7,1.8724747527157888
6.704,1.8009290490299463
6.708,2.2415855421859305
6.712,2.4318320724414662
6.716,2.3371966189297382
6.72,2.4028885832231026
6.724,2.7752514501335099
6.728,2.6038669690315146
6.732,1.8445068867295049
6.736,1.3326298976317048
6.74,1.5420636847848073
6.744,1.6529595254978631
6.748,1.3628742178261746
6.752,1.0952282444923185
6.756,1.4074276787578128
6.76,1.6406016312248539
6.764,1.385313552164007
6.768,1.0503495758166537
6.772,1.2861251902359072
6.776,1.6139345962146763
6.78,1.4357207524881233
6.784,1.0796182727790438
6.788,1.2197828104544897
6.792,1.6230404130474199
6.796,1.5381611918564886
6.8,1.2038476309971884
6.804,1.2607589862018358
6.808,1.7219035672314931
6.812,1.7173506588151213
6.816,1.3762077353312634
6.82,1.3053124471334741
6.824,1.7638553662109189
6.828,1.8545883267943282
6.832,1.5563728255219758
6.836,1.4041756013175473
6.84,1.8227179678797256
6.844,1.9872730863571633
6.848,1.7049927645421121
6.852,1.4744204740272835
6.856,1.8383279395930003
6.86,2.1007705890224315
6.864,1.8741007914359216
6.868,1.5970237935252953
6.872,1.8770276611321606
6.876,2.2142680916876998
6.88,2.0399567408894654
6.884,1.7183262820472009
6.888,1.890686386381276
6.892,2.301423767086817
6.896,2.2113412219914608
6.9,1.8675966365553904
6.904,1.9101988510228693
6.908,2.3440259815542959
6.912,2.3492293054587208
6.916,2.0253223924082704
6.92,1.9758908153162338
6.924,2.4227262556087226
6.928,2.5154104626562912
6.932,2.2087395600392483
6.936,2.0607700365071651
6.94,2.4708570017246529
6.944,2.6480952222191263
6.948,2.3863029882777482
6.952,2.1846741869812831
6.956,2.5557362229155842
6.96,2.8341140518023167
6.964,2.6155744478164706
6.968,2.3355705802096054
6.972,2.603541761287488
6.976,2.96224590294878
6.98,2.8217561575293075
6.984,2.5163860858883709
6.988,2.6757378804613836
6.992,3.0757434056140482
6.996,3.0172060116892681
7,2.7102099013281986
7.004,2.7498852460994385
7.008,3.1502159789961297
7.012,3.1537932641804218
7.016,2.830211558873998
7.02,2.7505356615874916
7.024,3.1391589156992268
7.028,3.2282658375625033
7.032,2.9212697272014339
7.036,2.7372021440824028
7.04,3.0620846803649329
7.044,3.200623179320246
7.048,2.902082470303867
7.052,2.6149240323284175
7.056,2.8643583719967864
7.06,3.0682636275014374
7.064,2.8064713935600594
7.068,2.4542714067792986
7.072,2.6158996555604972
7.076,2.8685860726691317
7.08,2.6506968841713388
7.084,2.2715046546363737
7.088,2.356383875827305
7.092,2.6906974366866052
7.096,2.563216001028195
7.1,2.186950641189469
7.104,2.1719910849642474
7.108,2.5498824835231062
7.112,2.5095567232638132
7.116,2.1404459337936714
7.12,2.0386559099133592
7.124,2.4370353963458911
7.128,2.4851661424618214
7.132,2.1394703105615918
7.136,1.9586548048828263
7.14,2.3518309674109332
7.144,2.5069550613116007
7.148,2.2035362361348234
7.152,1.9375163015211001
7.156,2.261748422315577
7.16,2.5069550613116007
7.164,2.2663013307319488
7.168,1.9687362449476495
7.172,2.2197966233361512
7.176,2.5378497969941236
7.18,2.3537822138750926
7.184,2.0100376284390222
7.188,2.152478620322654
7.192,2.5365489660180174
7.196,2.4350841498817317
7.2,2.0939412263978738
7.204,2.155405490018893
7.208,2.6123223703762051
7.212,2.6250054723932408
7.216,2.3186597775202245
7.22,2.307277506479295
7.224,2.7947639147751033
7.228,2.9261478433618322
7.232,2.6458187680109404
7.236,2.5245162794890348
7.24,2.9576929945324082
7.244,3.1859888308390509
7.248,2.9749290049658157
7.252,2.8380165447306354
7.256,3.2559084958047606
7.26,3.6565644364454783
7.264,3.5853439405036625
7.268,3.3661539210297633
7.272,3.5287577930430416
7.276,3.7707123545987997
7.28,3.5778641623910517
7.284,3.1996475560881663
7.288,3.2032248412724584
7.292,3.4607893745414913
7.296,3.3229012910742313
7.3,2.9160664032970089
7.304,2.8188292878330685
7.308,3.0946054547675885
7.312,3.0081001948565245
7.316,2.5762243107892573
7.32,2.3518309674109332
7.324,2.6084198774478864
7.328,2.5729722333489917
7.332,2.1580071519711055
7.336,1.856214365514461
7.34,2.0897135257255286
7.344,2.1258115853124764
7.348,1.7381639544328209
7.352,1.353768400993431
7.356,1.5381611918564886
7.36,1.6555611874500755
7.364,1.3124670175020583
7.368,0.88384321087505668
7.372,1.0249833717825823
7.376,1.2727916727308184
7.38,1.0386420970316976
7.384,0.63766094864695333
7.388,0.75050803582416847
7.392,1.0988055296766106
7.396,0.89490027417195961
7.4,0.48286206249031238
7.404,0.62627867760602385
7.408,1.3436869609286077
7.412,1.6432032931770664
7.416,1.5596249029622413
7.42,1.6162110504228622
7.424,1.9069467735826038
7.428,1.6041783638938796
7.432,1.0077473613491748
7.436,0.76449196881731041
7.44,1.2955562148126774
7.444,1.5446653467370197
7.448,1.2763689579151105
7.452,1.0474227061204147
7.456,1.506290832941886
7.46,1.8168642284872476
7.464,1.5937717160850298
7.468,1.3043368239013944
7.472,1.6484066170814913
7.476,2.0240215614321642
7.48,1.8461329254496377
7.484,1.526128505327506
7.488,1.761578912002733
7.492,2.2367074260255322
7.496,2.1453240499540698
7.5,1.7940996864053886
7.504,1.8867838934529573
7.508,2.4028885832231026
7.512,2.4145960620080587
7.516,2.0906891489576083
7.52,2.0757295927323867
7.524,2.6025661380554084
7.528,2.715088017488597
7.532,2.4051650374312885
7.536,2.2812608869571704
7.54,2.7703733339731116
7.544,2.9830591985664796
7.548,2.7163888484647032
7.552,2.4998004909430165
7.556,2.9069605864642654
7.56,3.2168835665215738
7.564,3.0233849588257726
7.568,2.7856580979423597
7.572,3.1268010214262176
7.576,3.5577012822614051
7.58,3.479326215951005
7.584,3.2389976931153797
7.588,3.4711960223503411
7.592,3.9479505750932731
7.596,3.9716907404072117
7.6,3.7567284216056578
7.604,3.8903888044005726
7.608,4.3749483430001419
7.612,4.5050314406107645
7.616,4.3121832484030165
7.62,4.2998253541300073
7.624,4.6360901614534669
7.628,4.665358858415857
7.632,4.5277959826926235
7.636,4.3703954345837701
7.64,4.5817804682010319
7.644,4.6393422388937324
7.648,4.3856801985530183
7.652,4.0773832572158426
7.656,4.1954336682974827
7.66,4.3099067941948306
7.664,3.9889267508406192
7.668,3.5212780149304308
7.672,3.4646918674698099
7.676,3.5245300923706964
7.68,3.1694032358936965
7.684,2.6207777717208955
7.688,2.4666293010523077
7.692,2.5931351134786382
7.696,2.3193101930082776
7.7,1.8149129820230883
7.704,1.65230911000981
7.708,1.8786536998522934
7.712,1.7209279439994134
7.716,1.2594581552257296
7.72,1.040593343495857
7.724,1.3840127211879008
7.728,1.3814110592356883
7.732,0.97034847078612074
7.736,0.69977562775602564
7.74,1.0734393256425392
7.744,1.2025468000210822
7.748,0.87116010885802098
7.752,0.57099336112150922
7.756,0.9586409920011647
7.76,1.2279130040551536
7.764,0.96774680883390829
7.768,0.64188864931929857
7.772,0.99734071354032494
7.776,1.4214116117509548
7.78,1.2623850249219686
7.784,0.93197395699098706
7.788,1.1827091276354622
7.792,1.7020658948458731
7.796,1.6477562015934382
7.8,1.3485650770890061
7.804,1.5410880615527276
7.808,2.1606088139233179
7.812,2.2393090879777446
7.816,1.9671102062275168
7.82,2.037355078937253
7.824,2.6545993770996574
7.828,2.8285855201538652
7.832,2.5550858074275311
7.836,2.4643528468441218
7.84,2.9749290049658157
7.844,3.2250137601222377
7.848,2.9931406386313029
7.852,2.8441954918671399
7.856,3.3014375799684785
7.86,3.6864835488959216
7.864,3.576888539158972
7.868,3.4432281563640572
7.872,3.826973294315394
7.876,4.2855162133928388
7.88,4.2341333898366429
7.884,3.9307145646598656
7.888,3.9346170575881843
7.892,4.146002091205446
7.896,3.939169966004556
7.9,3.456561673869146
7.904,3.2575345345248934
7.908,3.4321710930671543
7.912,3.2461522634839639
7.916,2.7157384329766501
7.92,2.3466276435065083
7.924,2.4308564492093865
7.928,2.2451628273702227
7.932,1.6893827928288374
7.936,1.1970182683726307
7.94,1.1963678528845776
7.944,1.0363656428235117
7.948,0.44936566485557705
7.952,0.002530224563088268
7.956,0.0015546013310085982
7.96,0.0012293935869820416
7.964,0.0012293935869820416
7.968,0.0018798090750351548
7.972,0.00090418584295548499
7.976,0.0012293935869820416
7.98,0.0015546013310085982
7.984,0.0018798090750351548
7.988,0.0018798090750351548
7.992,0.00090418584295548499
7.996,0.0012293935869820416
8,0.00057897809892892838
8.004,0.00057897809892892838
8.008,0.0015546013310085982
8.012,0.00090418584295548499
8.016,0.0022050168190617114
8.02,0.0012293935869820416
8.024,0.00057897809892892838
8.028,0.0015546013310085982
8.032,0.0015546013310085982
8.036,0.0018798090750351548
8.04,0.0018798090750351548
8.044,0.0015546013310085982
8.048,0.0012293935869820416
8.052,0.0022050168190617114
8.056,0.00090418584295548499
8.06,0.0015546013310085982
8.064,0.0012293935869820416
8.068,0.0018798090750351548
8.072,0.0022050168190617114
8.076,0.12871082924539223
8.08,0.11895459692459553
8.084,0.08968589996220544
8.088,0.7615650991210714
8.092,1.6815778069722001
8.096,1.8734503759478685
8.1,1.6314958143921103
8.104,1.5853163147403393
8.108,1.8477589641697705
8.112,1.5758852901635692
8.116,1.1049844768131152
8.12,1.1170171633420978
8.124,1.8438564712414518
8.128,1.9768664385483135
8.132,1.6419024622009601
8.136,1.5459661777131259
8.14,2.2315041021211073
8.144,2.4741090791649185
8.148,2.1602836061792914
8.152,1.9814193469646852
8.156,2.6588270777720027
8.16,3.0789954830543138
8.164,2.8581794248602819
8.168,2.6315096272737719
8.172,3.2220868904259987
8.176,3.80941207613796
8.18,3.7134757916501258
8.184,3.4552608428930398
8.188,3.8422580582846422
8.192,4.4637300571193919
8.196,4.4523477860784624
8.2,4.1674658023111988
8.204,4.3505577621981502
8.208,4.6913754779379815
8.212,4.6884486082417425
8.216,4.6517001331667416
8.22,4.6650336506718304
8.224,4.6988552560505923
8.228,4.699830879282672
8.232,4.6855217385455035
8.236,4.6809688301291317
8.24,4.7017821257468313
8.244,4.7011317102587782
8.248,4.6877981927536894
8.252,4.657228664815193
8.256,4.6890990237297956
8.26,4.6874729850096628
8.264,4.5827560914331116
8.268,4.1707178797514644
8.272,4.2035638618981466
8.276,4.3368990369490348
8.28,3.9999838141375221
8.284,3.485179955343483
8.288,3.4617649977735709
8.292,3.7290857633634005
8.296,3.5105461593775544
8.3,3.0298891137063038
8.304,2.9570425790443551
8.308,3.3388364705315325
8.312,3.2347699924430344
8.316,2.7778531120857224
8.32,2.6230542259290814
8.324,3.0689140429894906
8.328,3.0894021308631636
8.332,2.6838680740620475
8.336,2.4643528468441218
8.34,2.9368796989147086
8.344,3.0881012998870574
8.348,2.7329744434100576
8.352,2.4513445370830595
8.356,2.9046841322560795
8.36,3.1798098837025464
8.364,2.8864724985905923
8.368,2.5342725118098315
8.372,2.8929766534711234
8.376,3.2877788547193632
8.38,3.074442574637942
8.384,2.6845184895501006
8.388,2.9030580935359467
8.392,3.3889184631116223
8.396,3.2848519850231241
8.4,2.9105378716485575
8.404,3.0178564271773212
8.408,3.5895716411760077
8.412,3.6035555741691496
8.416,3.2594857809890527
8.42,3.2913561399036553
8.424,3.9440480821649544
8.428,4.1443760524853133
8.432,3.9072996070899535
8.436,3.9125029309943784
8.44,4.5424303311738186
8.444,4.682920076593291
8.448,4.6575538725592196
8.452,4.6721882210404146
8.456,4.70568461867515
8.46,4.7125139812997077
8.464,4.7141400200198404
8.468,4.7183677206921857
8.472,4.7193433439242654
8.476,4.7212945903884247
8.48,4.7206441749003716
8.484,4.720318967156345
8.488,4.7212945903884247
8.492,4.7212945903884247
8.496,4.7199937594123185
8.5,4.720318967156345
8.504,4.7196685516682919
8.508,4.7180425129481591
8.512,4.7154408509959467
8.516,4.7076358651393093
8.52,4.6877981927536894
8.524,4.5912114927778021
8.528,3.9850242579123005
8.532,3.0757434056140482
8.536,2.373294678516686
8.54,2.2958952354383655
8.544,2.1206082614080515
8.548,1.5671046810748521
8.552,0.9631939004175365
8.556,0.82400498597417027
8.56,0.6828648250666447
8.564,0.12838562150136568
8.568,0.0022050168190617114
8.572,0.0018798090750351548
8.576,0.0015546013310085982
8.58,0.0012293935869820416
8.584,0.00090418584295548499
8.588,0.0022050168190617114
8.592,0.0018798090750351548
8.596,0.0015546013310085982
8.6,0.0018798090750351548
8.604,0.00057897809892892838
8.608,0.0012293935869820416
8.612,0.0012293935869820416
8.616,0.002530224563088268
8.62,0.00090418584295548499
8.624,0.0015546013310085982
8.628,0.00090418584295548499
8.632,0.0018798090750351548
8.636,0.0015546013310085982
8.64,0.0018798090750351548
8.644,0.0012293935869820416
8.648,0.00057897809892892838
8.652,0.0015546013310085982
8.656,0.0018798090750351548
8.66,0.0022050168190617114
8.664,0.0012293935869820416
8.668,0.0012293935869820416
8.672,0.4909922560909763
8.676,1.1553916771372315
8.68,1.0731141178985126
8.684,0.76221551460912451
8.688,1.1576681313454174
8.692,1.8074332039104775
8.696,1.7092204652144574
8.7,1.3323046898876783
8.704,1.5397872305766214
8.708,2.2477644893224351
8.712,2.2650004997558426
8.716,1.90824760455871
8.72,1.994102448981721
8.724,2.7567146087239962
8.728,2.8858220831025392
8.732,2.4711822094686795
8.736,2.3046758445270825
8.74,2.9915145999111701
8.744,3.3768857765826397
8.748,3.3134702664974611
8.752,3.4009511496406049
8.756,4.1928320063452702
8.76,4.6595051190233789
8.764,4.3082807554746978
8.768,3.7043699748173822
8.772,3.9664874165027868
8.776,4.4351117756450549
8.78,4.3508829699421767
8.784,4.1583599854784552
8.788,4.5629184190474916
8.792,4.7011317102587782
8.796,4.7021073334908579
8.8,4.7021073334908579
8.804,4.7095871116034687
8.808,4.7160912664839998
8.812,4.7167416819720529
8.816,4.7183677206921857
8.82,4.7186929284362122
8.824,4.720318967156345
8.828,4.7222702136205044
8.832,4.7209693826443981
8.836,4.7209693826443981
8.84,4.7216197981324513
8.844,4.7216197981324513
8.848,4.7222702136205044
8.852,4.7219450058764778
8.856,4.7225954213645309
8.86,4.7219450058764778
8.864,4.7216197981324513
8.868,4.7212945903884247
8.872,4.7225954213645309
8.876,4.7222702136205044
8.88,4.7225954213645309
8.884,4.7212945903884247
8.888,4.7219450058764778
8.892,4.7212945903884247
8.896,4.720318967156345
8.9,4.7193433439242654
8.904,4.7177173052041326
8.908,4.7170668897160795
8.912,4.7128391890437342
8.916,4.7014569180028047
8.92,4.6773915449448396
8.924,4.6608059499994852
8.928,4.4182009729556739
8.932,3.8133145690662786
8.936,3.4217644452583045
8.94,3.6572148519335315
8.944,3.7534763441653922
8.948,3.4087561354972422
8.952,3.0959062857436948
8.956,3.3651782977976836
8.96,3.5967262115445919
8.964,3.3424137557158247
8.968,3.0155799729691353
8.972,3.2464774712279905
8.976,3.5843683172715828
8.98,3.4178619523299858
8.984,3.0750929901259951
8.988,3.221111267193919
8.992,3.6432309189403895
8.996,3.5921733031282201
9,3.2835511540470179
9.004,3.3576985196850728
9.008,3.8360791111481376
9.012,3.915755008434644
9.016,3.6715239926707
9.02,3.6874591721280012
9.024,4.1502297918777913
9.028,4.3486065157339908
9.032,4.1515306228538975
9.036,4.088115112768719
9.04,4.4617788106552325
9.044,4.6588547035353258
9.048,4.5603167570952792
9.052,4.4647056803514715
9.056,4.6708873900643084
9.06,4.6965788018424064
9.064,4.6985300483065657
9.068,4.7030829567229375
9.072,4.7105627348355483
9.076,4.7151156432519201
9.08,4.7170668897160795
9.084,4.7147904355078936
9.088,4.7160912664839998
9.092,4.7164164742280263
9.096,4.7157660587399732
9.1,4.7125139812997077
9.104,4.7092619038594421
9.108,4.7095871116034687
9.112,4.7037333722109906
9.116,4.6777167526888661
9.12,4.4234042968600988
9.124,4.1824253585364204
9.128,3.8107129071140662
9.132,3.1576957571087405
9.136,2.6383389898983296
9.14,2.6337860814819578
9.144,2.5502076912671328
9.148,2.0523146351624746
9.152,1.5010875090374611
9.156,1.4126310026622377
9.16,1.3560448552016169
9.164,0.89164819673169404
9.168,0.36643769012880512
9.172,0.4272515382617712
9.176,0.65327092036022805
9.18,0.40090971099562012
9.184,0.0015546013310085982
9.188,0.080580083129461855
9.192,0.42920278472593054
9.196,0.31050195815623738
9.2,0.0018798090750351548
9.204,0.011310833651805297
9.208,0.40416178843588568
9.212,0.39050306318677031
9.216,0.038628284150036052
9.22,0.032774544757558033
9.224,0.55733463587239385
9.228,0.71636122270138003
9.232,0.4392842247907538
9.236,0.35212854939163662
9.24,0.9069329607009422
9.244,1.1775058037310373
9.248,0.93002271052682772
9.252,0.74270304996753111
9.256,1.2171811485022772
9.26,1.6012514941976406
9.264,1.4292165976075921
9.268,1.1739285185467452
9.272,1.5101933258702047
9.276,1.9248331995040644
9.28,1.8064575806783978
9.284,1.529055375023745
9.288,1.7378387466887943
9.292,2.1999589509505313
9.296,2.1531290358107071
9.3,1.8412548092892393
9.304,1.9118248897430021
9.308,2.3687417701003142
9.312,2.3931323509023059
9.316,2.0825589553569444
9.32,2.0464608957699966
9.324,2.4978492444788571
9.328,2.6386641976423562
9.332,2.3710182243085001
9.336,2.2633744610357098
9.34,2.6838680740620475
9.344,2.9316763750102837
9.348,2.7251694575534202
9.352,2.5625655855401419
9.356,2.9092370406724513
9.36,3.2386724853713531
9.364,3.1050121025764383
9.368,2.9085866251843981
9.372,3.1385085002111737
9.376,3.4598137513094116
9.38,3.3404625092516653
9.384,3.1417605776514392
9.388,3.4159107058658265
9.392,4.0455128983012401
9.396,4.3853549908089917
9.4,4.3964120541058946
9.404,4.3967372618499212
9.408,4.3782004204404075
9.412,4.1004730070417281
9.416,3.6933129115204792
9.42,3.5824170708074234
9.424,3.9040475296496879
9.428,4.111530070338631
9.432,3.9404707969806623
9.436,3.8032331290014554
9.44,3.9983577754173893
9.444,4.1912059676251374
9.448,3.9938048670010176
9.452,3.7554275906295516
9.456,3.8484370054211468
9.46,4.0630741164786741
9.464,3.9167306316667236
9.468,3.6432309189403895
9.472,3.6464829963806551
9.476,3.8432336815167218
9.48,3.6991666509129573
9.484,3.3570481041970197
9.488,3.2874536469753366
9.492,3.4900580715038814
9.496,3.4009511496406049
9.5,3.0565561487164814
9.504,2.9388309453788679
9.508,3.1655007429653779
9.512,3.1596470035728998
9.516,2.8324880130821839
9.52,2.6763882959494367
9.524,2.9154159878089558
9.528,2.9960675083275419
9.532,2.6913478521746583
9.536,2.4773611566051841
9.54,2.6936243063828442
9.544,2.8659844107169192
9.548,2.6441927292908076
9.552,2.4227262556087226
9.556,2.5986636451270897
9.56,2.8409434144268744
9.564,2.683542866318021
9.568,2.4383362273219973
9.572,2.557362261635717
9.576,2.850049231259618
9.58,2.758340647444129
9.584,2.494271959294565
9.588,2.5381750047381502
9.592,2.8516752699797507
9.596,2.838992167962715
9.6,2.5713461946288589
9.604,2.5401262512023095
9.608,2.8432198686350603
9.612,2.9017572625598405
9.616,2.6451683525228873
9.62,2.5498824835231062
9.624,2.8279351046658121
9.628,2.9742785894777626
9.632,2.7511860770755447
9.636,2.600614891591249
9.64,2.8178536646009888
9.644,3.0376940995629411
9.648,2.8666348262049723
9.652,2.6734614262531977
9.656,2.8116747174644843
9.66,3.0594830184127204
9.664,2.9531400861160364
9.668,2.770048126229085
9.672,2.8741146043175831
9.676,3.1915173624875024
9.68,3.2256641756102908
9.684,3.1186708278255537
9.688,3.1941190244397148
9.692,3.5440425570122898
9.696,3.6373771795479115
9.7,3.4032276038487907
9.704,3.2565589112928137
9.708,3.3970486567122862
9.712,3.3973738644563127
9.716,3.0806215217744466
9.72,2.8640331642527599
9.724,2.9752542127098422
9.728,3.0240353743138257
9.732,2.7206165491370484
9.736,2.4698813784925733
9.74,2.557362261635717
9.744,2.6363877434341703
9.748,2.3238631014246494
9.752,1.9892243328213226
9.756,2.0350786247290671
9.76,2.172316292708274
9.764,1.9121500974870287
9.768,1.5521451248496305
9.772,1.548893047409365
9.776,1.7251556446717586
9.78,1.5199495581910014
9.784,1.1160415401100181
9.788,1.040593343495857
9.792,1.2484010919288266
9.796,1.0936022057721857
9.8,0.66920609981752932
9.804,0.53001718537416309
9.808,0.79441108126775362
9.812,0.75018282808014192
9.816,0.37294184500933625
9.82,0.21163880397216417
9.824,0.53164322409429587
9.828,0.62790471632615663
9.832,0.31960777498898096
9.836,0.13293852991773747
9.84,0.47473186888964847
9.844,0.69327147287549451
9.848,0.44351192546309903
9.852,0.19407758579473011
9.856,0.4835124779783655
9.86,0.77847590181045234
9.864,0.60774183619651012
9.868,0.35700666555203497
9.872,0.59570914966752753
9.876,0.97490137920249254
9.88,0.88579445733921602
9.884,0.6116443291248288
9.888,0.75473573649651371
9.892,1.1703512333624531
9.896,1.1687251946423203
9.9,0.90205484454054385
9.904,0.9557141223049257
9.908,1.3872647986281663
9.912,1.4792985901876818
9.916,1.2168559407582507
9.92,1.155716884881258
9.924,1.5414132692967542
9.928,1.7040171413100325
9.932,1.4786481746996287
9.936,1.3680775417305995
9.94,1.7147489968629088
9.944,1.9505246112821624
9.948,1.7619041197467595
9.952,1.6035279484058265
9.956,1.8731251682038419
9.96,2.1794708630768582
9.964,2.0558919203467667
9.968,1.8575151964905672
9.972,2.0545910893706605
9.976,2.4132952310319524
9.98,2.3671157313801814
9.984,2.146624880930176
9.988,2.2376830492576119
9.992,2.5804520114616025
9.996,2.5531345609633718
10,2.2415855421859305
10.004,2.2002841586945578
10.008,2.6129727858642582
10.012,2.9274486743379384
10.016,3.0028968709520996
10.02,3.1541184719244484
10.024,3.5323350782273337
10.028,3.6240436620428227
10.032,3.0520032403001096
10.036,2.5752486875571776
10.04,2.6532985461235512
10.044,2.8406182066828478
10.048,2.6731362185091712
10.052,2.4923207128304057
10.056,2.6409406518505421
10.06,2.8728137733414769
10.064,2.704030954191694
10.068,2.4256531253049616
10.072,2.482564480509609
10.076,2.7232182110892609
10.08,2.5924846979905851
10.084,2.2692282004281878
10.088,2.2399595034657978
10.092,2.4773611566051841
10.096,2.3784980024211109
10.1,2.0071107587427832
10.104,1.8783284921082668
10.108,2.0903639412135817
10.112,2.0197938607598189
10.116,1.6145850117027294
10.12,1.3726304501469713
10.124,1.5729584204673301
10.128,1.5953977548051625
10.132,1.2197828104544897
10.136,0.92579500985448249
10.14,1.1384808744478505
10.144,1.2688891798024997
10.148,0.96384431590558961
10.152,0.64709197322372347
10.156,0.84286703512771055
10.16,1.0688864172261674
10.164,0.83408642603899352
10.168,0.49034184060292318
10.172,0.57554626953788102
10.176,0.79343545803567395
10.18,0.5599362978246063
10.184,0.16708534304052591
10.188,0.25066373325535096
10.192,0.66237673719297163
10.196,0.63180720925447531
10.2,0.32513630663743243
10.204,0.37944599988986738
10.208,0.85489972165669315
10.212,0.92742104857461527
10.216,0.63440887120668776
10.22,0.59408311094739474
10.224,1.0649839242978487
10.228,1.2321407047274988
10.232,0.95311246035271324
10.236,0.80774459877284244
10.24,1.2155551097821444
10.244,1.4675911114027258
10.248,1.2383196518640034
10.252,1.0259589950146619
10.256,1.3557196474575903
10.26,1.6838542611803859
10.264,1.5176731039828155
10.268,1.2604337784578092
10.272,1.5014127167814877
10.276,1.8822309850365855
10.28,1.7807661689002998
10.284,1.5040143787337001
10.288,1.6445041241531726
10.292,2.0536154661385808
10.296,2.0292248853365891
10.3,1.7427168628491927
10.304,1.79019719347707
10.308,2.227276401448762
10.312,2.3261395556328353
10.316,2.0825589553569444
10.32,2.0695506455958821
10.324,2.4864669734379277
10.328,2.6708597643009853
10.332,2.4402874737861566
10.336,2.3154077000799589
10.34,2.6386641976423562
10.344,2.8692364881571848
10.348,2.6523229228914715
10.352,2.4376858118339442
10.356,2.6676076868607197
10.36,2.9463107234914787
10.364,2.7846824747102801
10.368,2.5355733427859377
10.372,2.695250345102977
10.376,3.0178564271773212
10.38,2.910863079392584
10.384,2.6106963316560723
10.388,2.6646808171644807
10.392,3.0061489483923651
10.396,2.9804575366142672
10.4,2.6760630882054102
10.404,2.6412658595945686
10.408,2.9648475649009924
10.412,3.0064741561363917
10.416,2.7089090703520924
10.42,2.591834282502532
10.424,2.8861472908465657
10.428,2.9863112760067452
10.432,2.6897218134545255
10.436,2.491345089598326
10.44,2.7375273518264294
10.444,2.9063101709762122
10.448,2.6458187680109404
10.452,2.3993112980388105
10.456,2.6129727858642582
10.46,2.8624071255326271
10.464,2.6575262467958964
10.468,2.3576847068034112
10.472,2.4806132340454496
10.476,2.7635439713485539
10.48,2.6106963316560723
10.484,2.2682525771961082
10.488,2.3004481438547373
10.492,2.6058182154956739
10.496,2.5163860858883709
10.5,2.1476005041622557
10.504,2.0682498146197759
10.508,2.3645140694279689
10.512,2.3397982808819506
10.516,1.9810941392206587
10.52,1.8555639500264078
10.524,2.1892270953976549
10.528,2.2822365101892501
10.532,1.9576791816507466
10.536,1.7501966409618035
10.54,2.04613568802597
10.544,2.2123168452235404
10.548,1.9362154705449939
10.552,1.7105212961905636
10.556,1.99702931867796
10.56,2.290366703789914
10.564,2.1170309762237594
10.568,1.8832066082686651
10.572,2.1196326381759718
10.576,2.4991500754549634
10.58,2.4220758401206695
10.584,2.1784952398447786
10.588,2.3258143478888087
10.592,2.7446819221950136
10.596,2.7658204255567398
10.6,2.5189877478405833
10.604,2.5638664165162481
10.608,2.9684248500852846
10.612,3.0767190288461279
10.616,2.8113495097204577
10.62,2.6994780457753222
10.624,2.9924902231432498
10.628,3.1882652850472368
10.632,3.1469639015558641
10.636,3.2923317631357349
10.64,3.8071356219297741
10.644,4.3144597026112024
10.648,4.2360846363008022
10.652,3.7573788370937109
10.656,3.536562778899679
10.66,3.5850187327596359
10.664,3.3915201250638347
10.668,3.1697284436377231
10.672,3.2946082173439208
10.676,3.5964010038005654
10.68,3.5053428354731295
10.684,3.212330658105202
10.688,3.2038752567605115
10.692,3.4689195681421552
10.696,3.4116830051934812
10.7,3.0728165359178092
10.704,2.9612702797167003
10.708,3.1986719328560866
10.712,3.1775334294943605
10.716,2.8025689006317407
10.72,2.5850049198779743
10.724,2.7941134992870502
10.728,2.8383417524746619
10.732,2.4760603256290779
10.736,2.1924791728379205
10.74,2.3632132384518627
10.744,2.4545966145233251
10.748,2.1089007826230954
10.752,1.7495462254737504
10.756,1.8754016224120278
10.76,2.0236963536881376
10.764,1.7193019052792806
10.768,1.3248249117750674
10.772,1.3992974851571489
10.776,1.638325177016668
10.78,1.4194603652867954
10.784,0.99571467482019216
10.788,1.000267583236564
10.792,1.3202720033586957
10.796,1.2002703458128963
10.8,0.78498005669098347
10.804,0.70400332842837088
10.808,1.0549024842330255
10.812,1.0246581640385557
10.816,0.63278283248655498
10.82,0.49749641097150743
10.824,0.9166891930217389
10.828,1.0383168892876711
10.832,0.72026371562969871
10.836,0.53879779446288012
10.84,0.95408808358479291
10.844,1.141082536400063
10.848,0.77750027857837267
10.852,0.39863325678743422
10.856,0.66140111396089196
10.86,0.9241689711343497
10.864,0.68774294122704305
10.868,0.38139724635402672
10.872,0.68416565604275092
10.876,1.1166919555980712
10.88,1.0044952839089092
10.884,0.69619834257173352
10.888,0.89782714386819862
10.892,1.3849883444199804
10.896,1.3469390383688733
10.9,1.0123002697655465
10.904,1.077992234058911
10.908,1.5901944309007376
10.912,1.6415772544569336
10.916,1.3170199259184301
10.92,1.2705152185226325
10.924,1.761578912002733
10.928,1.9160525904153474
10.932,1.6363739305525087
10.936,1.5147462342865765
10.94,1.9550775196985342
10.944,2.1996337432065047
10.948,1.9482481570739765
10.952,1.7514974719379097
10.956,2.131990532448981
10.96,2.4689057552604936
10.964,2.2773583940288518
10.968,2.0210946917359252
10.972,2.3076027142233215
10.976,2.7235434188332874
10.98,2.6441927292908076
10.984,2.3840265340695623
10.988,2.542727913154522
10.992,2.9612702797167003
10.996,2.9134647413447965
11,2.5768747262773104
11.004,2.5921594902465586
11.008,3.0172060116892681
11.012,3.083223183726659
11.016,2.7820808127580676
11.02,2.7053317851678003
11.024,3.0946054547675885
11.028,3.2370464466512203
11.032,2.9671240191091783
11.036,2.8341140518023167
11.04,3.1986719328560866
11.044,3.4399760789237916
11.048,3.2233877214021049
11.052,3.028263074986171
11.056,3.3020879954565316
11.06,3.608433690329548
11.064,3.453634804172907
11.068,3.2126558658492286
11.072,3.4068048890330829
11.076,3.7635577842302155
11.08,3.6819306404795498
11.084,3.407455304521136
11.088,3.4923345257120673
11.092,3.8669738468306605
11.096,3.8659982235985808
11.1,3.5791649933671579
11.104,3.5580264900054317
11.108,3.8887627656804398
11.112,3.94730015960522
11.116,3.6607921371178236
11.12,3.5450181802443694
11.124,3.8227455936430488
11.128,3.9336414343561046
11.132,3.6617677603499033
11.136,3.4803018391830847
11.14,3.7138009993941523
11.144,3.8864863114722539
11.148,3.6123361832578667
11.152,3.3050148651527707
11.156,3.4136342516576406
11.16,3.5674575145822018
11.164,3.2747705449583009
11.168,2.8828952134063002
11.172,2.9212697272014339
11.176,3.1303783066105098
11.18,2.9024076780478936
11.184,2.4650032623321749
11.188,2.4318320724414662
11.192,2.7063074083998799
11.196,2.5719966101169121
11.2,2.166462553315796
11.204,2.0929656031657942
11.208,2.4256531253049616
11.212,2.3976852593186777
11.216,2.0142653291113675
11.22,1.8819057772925589
11.224,2.2386586724896915
11.228,2.3128060381277464
11.232,1.9238575762719847
11.236,1.6438537086651195
11.24,1.9501994035381358
11.244,2.2276016091927886
11.248,2.1905279263737611
11.252,2.2659761229879223
11.256,2.8139511716726702
11.26,3.3131450587534346
11.264,3.0763938211021014
11.268,2.4110187768237665
11.272,2.3040254290390294
11.276,2.5430531208985485
11.28,2.4269539562810678
11.284,2.1801212785649113
11.288,2.3485788899706677
11.292,2.7706985417171381
11.296,2.7430558834748808
11.3,2.4217506323766429
11.304,2.4201245936565101
11.308,2.8093982632562984
11.312,2.8552525551640429
11.316,2.5446791596186813
11.32,2.4565478609874845
11.324,2.8233821962494403
11.328,2.9567173713003285
11.332,2.6685833100927994
11.336,2.4702065862365998
11.34,2.7502104538434651
11.344,2.9095622484164778
11.348,2.6002896838472225
11.352,2.290366703789914
11.356,2.4903694663662463
11.36,2.6972015915671363
11.364,2.416547308472218
11.368,2.0412575718655717
11.372,2.1557306977629196
11.376,2.4116691923118196
11.38,2.1797960708208848
11.384,1.7518226796819363
11.388,1.7553999648662284
11.392,2.0409323641215451
11.396,1.8731251682038419
11.4,1.4191351575427689
11.404,1.276043750171084
11.408,1.5592996952182148
11.412,1.4461274002969731
11.416,0.95213683712063357
11.42,0.6880681489710696
11.424,0.98498281926731579
11.428,0.98953572768368758
11.432,0.54302549513522536
11.436,0.20285819488344714
11.44,0.47993519279407337
11.444,0.58107480118633248
11.448,0.19505320902680978
11.452,0.00090418584295548499
11.456,0.10854794911574572
11.46,0.27830639149760827
11.464,0.0022050168190617114
11.468,0.0015546013310085982
11.472,0.0012293935869820416
11.476,0.042205569334328175
11.48,0.0015546013310085982
11.484,0.0015546013310085982
11.488,0.0015546013310085982
11.492,0.0015546013310085982
11.496,0.0015546013310085982
11.5,0.0015546013310085982
11.504,0.0015546013310085982
11.508,0.00090418584295548499
11.512,0.0022050168190617114
11.516,0.0018798090750351548
11.52,0.0015546013310085982
11.524,0.1319629066856578
11.528,0.30497342650778592
11.532,0.098466509050922468
11.536,0.065620526904240251
11.54,0.72123933886177838
11.544,1.0279102414788213
11.548,0.74367867319961078
11.552,0.51278117494075559
11.556,1.0357152273354586
11.56,1.4295418053516187
11.564,1.2051484619732946
11.568,0.89880276710027829
11.572,1.2971822535328101
11.576,1.7664570281631313
11.58,1.6074304413341451
11.584,1.2695395952905528
11.588,1.5313318292319309
11.592,2.071827099804068
11.596,2.0093872129509691
11.6,1.6526343177538365
11.604,1.7619041197467595
11.608,2.3316680872812867
11.612,2.3674409391242079
11.616,2.0132897058792878
11.62,1.9931268257496413
11.624,2.5625655855401419
11.628,2.7111855245602783
11.632,2.3902054812060669
11.636,2.2724802778684534
11.64,2.8129755484405905
11.644,3.0861500534228981
11.648,2.8259838582016528
11.652,2.6367129511781968
11.656,3.1105406342248898
11.66,3.5037167967529967
11.664,3.3310314846748952
11.668,3.0965567012317479
11.672,3.453634804172907
11.676,3.9326658111240249
11.68,3.8666486390866339
11.684,3.6285965704591945
11.688,3.8705511320149526
11.692,4.3889322759932838
11.696,4.4468192544300109
11.7,4.2279544427001383
11.704,4.3466552692698315
11.708,4.6842209075693972
11.712,4.6874729850096628
11.716,4.6679605203680694
11.72,4.6796679991530254
11.724,4.7008065025147516
11.728,4.7037333722109906
11.732,4.7008065025147516
11.736,4.7004812947707251
11.74,4.7082862806273624
11.744,4.7108879425795749
11.748,4.7069854496512562
11.752,4.7060098264191765
11.756,4.7092619038594421
11.76,4.7108879425795749
11.764,4.7089366961154155
11.768,4.7047089954430703
11.772,4.7079610728833359
11.776,4.7089366961154155
11.78,4.7069854496512562
11.784,4.7017821257468313
11.788,4.7034081644669641
11.792,4.7063350341632031
11.796,4.7024325412348844
11.8,4.6933267244021408
11.804,4.6903998547059018
11.808,4.6965788018424064
11.812,4.688773815985769
11.816,4.6009677250985987
11.82,4.4325101136928424
11.824,4.5918619082658552
11.828,4.6003173096105456
11.832,4.2760851888160687
11.836,4.0464885215333197
11.84,4.2754347733280156
11.844,4.4526729938224889
11.848,4.20323865415412
11.852,3.9720159481512383
11.856,4.1876286824408453
11.86,4.4982020779862069
11.864,4.4006397547782399
11.868,4.2367350517888553
11.872,4.4149488955154084
11.876,4.679993206897052
11.88,4.6731638442724943
11.884,4.6305616298050154
11.888,4.6474724324943963
11.892,4.6864973617775831
11.896,4.6877981927536894
11.9,4.6845461153134238
11.904,4.6959283863543533
11.908,4.7076358651393093
11.912,4.7108879425795749
11.916,4.7060098264191765
11.92,4.6936519321461674
11.924,4.6760907139687333
11.928,4.4812912752968259
11.932,3.8416076427965891
11.936,3.3450154176680371
11.94,3.3723328681662679
11.944,3.3833899314631708
11.948,2.9632215261808597
11.952,2.5232154485129286
11.956,2.5762243107892573
11.96,2.6682581023487728
11.964,2.2971960664144717
11.968,1.8171894362312742
11.972,1.8158886052551679
11.976,1.974264776596101
11.98,1.6848298844124656
11.984,1.1924653599562589
11.988,1.1046592690690886
11.992,1.3271013659832533
11.996,1.1134398781578057
12,0.61489640656509437
12.004,0.44643879515933804
12.008,0.73067036343854852
12.012,0.62432743114186451
12.016,0.14041830803034827
12.02,0.002530224563088268
12.024,0.14789808614295907
12.028,0.12903603698941879
12.032,0.0018798090750351548
12.036,0.0015546013310085982
12.04,0.0015546013310085982
12.044,0.0022050168190617114
12.048,0.0022050168190617114
12.052,0.0018798090750351548
12.056,0.0018798090750351548
12.06,0.0012293935869820416
12.064,0.0015546013310085982
12.068,0.00090418584295548499
12.072,0.00090418584295548499
12.076,0.0015546013310085982
12.08,0.00090418584295548499
12.084,0.0012293935869820416
12.088,0.0012293935869820416
12.092,0.0015546013310085982
12.096,0.0018798090750351548
12.1,0.0012293935869820416
12.104,0.00090418584295548499
12.108,0.00090418584295548499
12.112,0.0015546013310085982
12.116,0.0015546013310085982
12.12,0.0015546013310085982
12.124,0.0015546013310085982
12.128,0.0080587562115397304
12.132,0.00090418584295548499
12.136,0.0012293935869820416
12.14,0.45944710492040031
12.144,0.77359778565005399
12.148,0.51830970658920705
12.152,0.33261608475004323
12.156,0.96059223846532404
12.16,1.4519811396894511
12.164,1.2916537218843587
12.168,1.052300822280813
12.172,1.5040143787337001
12.176,2.0240215614321642
12.18,1.9069467735826038
12.184,1.609706895542331
12.188,1.8714991294837091
12.192,2.4097179458476603
12.196,2.3515057596669067
12.2,1.988899125077296
12.204,2.0510138041863684
12.208,2.5658176629804075
12.212,2.5837040889018681
12.216,2.2236991162644699
12.22,2.1745927469164599
12.224,2.6867949437582865
12.228,2.8139511716726702
12.232,2.4780115720932372
12.236,2.3290664253290743
12.24,2.8175284568569623
12.244,3.0731417436618358
12.248,2.8051705625839531
12.252,2.5970376064069569
12.256,3.0419218002352864
12.26,3.4455046105722431
12.264,3.2955838405760005
12.268,3.0617594726209063
12.272,3.3755849456065334
12.276,3.8042087522335351
12.28,3.6887600031041075
12.284,3.3336331466271076
12.288,3.3885932553675957
12.292,3.7398176189162768
12.296,3.6409544647322036
12.3,3.2747705449583009
12.304,3.3046896574087441
12.308,3.7902248192403931
12.312,3.895917336049024
12.316,3.6455073731485754
12.32,3.6276209472271148
12.324,4.0799849191680551
12.328,4.2673045797273517
12.332,4.0084392154822126
12.336,3.8448597202368546
12.34,4.1534818693180569
12.344,4.3515333854302298
12.348,4.0679522326390725
12.352,3.758029252581764
12.356,3.9437228744209278
12.36,4.1713682952395175
12.364,3.9199827091069892
12.368,3.5596525287255645
12.372,3.6731500313908327
12.376,3.9785201030317694
12.38,3.8136397768103052
12.384,3.4367240014835261
12.388,3.4601389590534382
12.392,3.7908752347284462
12.396,3.6923372882883996
12.4,3.2955838405760005
12.404,3.1954198554158211
12.408,3.519651976210298
12.412,3.485179955343483
12.416,3.0711904971976765
12.42,2.8695616959012114
12.424,3.1814359224226791
12.428,3.2328187459788751
12.432,2.8350896750343964
12.436,2.5222398252808489
12.44,2.7768774888536427
12.444,2.9033833012799732
12.448,2.5534597687073983
12.452,2.2207722465682309
12.456,2.4669545087963343
12.46,2.7024049154715613
12.464,2.4045146219432354
12.468,1.980118515988579
12.472,2.0887379024934489
12.476,2.3752459249808453
12.48,2.1619096448994242
12.484,1.7697091056033969
12.488,1.8721495449717622
12.492,2.3115052071516402
12.496,2.2484149048104882
12.5,1.9108492665109225
12.504,1.97719164629234
12.508,2.5137844239361584
12.512,2.6032165535434615
12.516,2.313131245871773
12.52,2.2955700276943389
12.524,2.8438702841231134
12.528,3.0731417436618358
12.532,2.841919037658954
12.536,2.7258198730414733
12.54,3.1537932641804218
12.544,3.4240408994664904
12.548,3.1879400773032103
12.552,2.9404569840990007
12.556,3.2324935382348485
12.56,3.5616037751897238
12.564,3.3882680476235691
12.568,3.0952558702556416
12.572,3.2533068338525482
12.576,3.5580264900054317
12.58,3.3378608472994529
12.584,2.9407821918430272
12.588,3.0513528248120565
12.592,3.6022547431930434
12.596,3.7915256502164993
12.6,3.6094093135616276
12.604,3.5694087610463612
12.608,3.6799793940153904
12.612,3.2773722069105133
12.616,2.6243550569051877
12.62,2.3583351222914644
12.624,2.7443567144509871
12.628,2.9160664032970089
12.632,2.6588270777720027
12.636,2.5095567232638132
12.64,2.9056597554881591
12.644,3.1993223483441398
12.648,3.0269622440100648
12.652,2.8506996467476711
12.656,3.16907802814967
12.66,3.5069688741932623
12.664,3.335584393091267
12.668,3.0315151524264365
12.672,3.172004897845909
12.676,3.5030663812649436
12.68,3.3658287132857367
12.684,2.9944414696074091
12.688,2.9785062901501078
12.692,3.2663151436136104
12.696,3.1339555917948019
12.7,2.7030553309596144
12.704,2.585980543110054
12.708,2.9027328857919201
12.712,2.8591550480923615
12.716,2.4386614350660238
12.72,2.2197966233361512
12.724,2.5092315155197866
12.728,2.5358985505299643
12.732,2.1339417789131403
12.736,1.8487345874018501
12.74,2.1267872085445561
12.744,2.2386586724896915
12.748,1.8552387422823813
12.752,1.4685667346348055
12.756,1.6467805783613585
12.76,1.8123113200708758
12.764,1.4802742134197615
12.768,1.0392925125197507
12.772,1.1560420926252846
12.776,1.4415744918806013
12.78,1.1940913986763917
12.784,0.72676787051022984
12.788,0.72286537758191116
12.792,1.055227691977052
12.796,0.89099778124364093
12.8,0.4174953059409745
12.804,0.30269697229960002
12.808,0.67375900823390111
12.812,0.59635956515558064
12.816,0.13098728345357813
12.82,0.0022050168190617114
12.824,0.3335917079821229
12.828,0.3732670527533628
12.832,0.0022050168190617114
12.836,0.0018798090750351548
12.84,0.020091442740522325
12.844,0.023993935668841004
12.848,0.0015546013310085982
12.852,0.0012293935869820416
12.856,0.0015546013310085982
12.86,0.0015546013310085982
12.864,0.00090418584295548499
12.868,0.0015546013310085982
12.872,0.0015546013310085982
12.876,0.0018798090750351548
12.88,0.0018798090750351548
12.884,0.00090418584295548499
12.888,0.0012293935869820416
12.892,0.0015546013310085982
12.896,0.0015546013310085982
12.9,0.0018798090750351548
12.904,0.00090418584295548499
12.908,0.0015546013310085982
12.912,0.0015546013310085982
12.916,0.0015546013310085982
12.92,0.0018798090750351548
12.924,0.0012293935869820416
12.928,0.00090418584295548499
12.932,0.0012293935869820416
12.936,0.0015546013310085982
12.94,0.00090418584295548499
12.944,0.0015546013310085982
12.948,0.0015546013310085982
12.952,0.00090418584295548499
12.956,0.0012293935869820416
12.96,0.0015546013310085982
12.964,0.0015546013310085982
12.968,0.0015546013310085982
12.972,0.0012293935869820416
12.976,0.49001663285889663
12.98,0.65717341328854673
12.984,0.5674160759372171
12.988,1.0646587165538222
12.992,1.7927988554292824
12.996,1.7609284965146799
13,1.4126310026622377
13.004,1.6136093884706497
13.008,2.3319932950253133
13.012,2.3970348438306246
13.016,2.0477617267461028
13.02,2.1154049375036266
13.024,2.8370409214985557
13.028,3.0159051807131618
13.032,2.6598027010040823
13.036,2.5241910717450082
13.04,3.1225733207538724
13.044,3.3856663856713567
13.048,3.0617594726209063
13.052,2.7963899534952361
13.056,3.2633882739173714
13.06,3.5895716411760077
13.064,3.2962342560640536
13.068,2.9518392551399302
13.072,3.3583489351731259
13.076,3.8494126286532264
13.08,3.689085210848134
13.084,3.3202996291220188
13.088,3.5882708101999015
13.092,4.1873034746968187
13.096,4.2110436400107574
13.1,3.9957561134651769
13.104,4.3333217517647427
13.108,4.7011317102587782
13.112,4.7060098264191765
13.116,4.7105627348355483
13.12,4.7154408509959467
13.124,4.7183677206921857
13.128,4.7199937594123185
13.132,4.720318967156345
13.136,4.7199937594123185
13.14,4.7212945903884247
13.144,4.7209693826443981
13.148,4.7216197981324513
13.152,4.720318967156345
13.156,4.7209693826443981
13.16,4.7216197981324513
13.164,4.720318967156345
13.168,4.7186929284362122
13.172,4.7190181361802388
13.176,4.7193433439242654
13.18,4.7177173052041326
13.184,4.7112131503236014
13.188,4.7099123193474952
13.192,4.7092619038594421
13.196,4.6985300483065657
13.2,4.5804796372249257
13.204,4.2682802029594313
13.208,4.2760851888160687
13.212,3.9820973882160615
13.216,3.3853411779273301
13.22,3.0949306625116151
13.224,3.3993251109204721
13.228,3.3944469947600737
13.232,2.9163916110410355
13.236,2.5430531208985485
13.24,2.786958928918466
13.244,2.8461467383312993
13.248,2.4152464774961118
13.252,2.0223955227120314
13.256,2.3235378936806228
13.26,2.5664680784684606
13.264,2.2510165667627007
13.268,1.8523118725861423
13.272,2.0022326425823849
13.276,2.1749179546604864
13.28,1.7495462254737504
13.284,1.0825451424752828
13.288,0.8724609398341272
13.292,1.0311623189190868
13.296,0.73327202539076097
13.3,0.32123381370911375
13.304,0.54562715708743781
13.308,1.3937689535086975
13.312,1.7163750355830416
13.316,1.548893047409365
13.32,1.4714936043310445
13.324,1.7801157534122467
13.328,1.6314958143921103
13.332,1.158643754577497
13.336,1.0399429280078039
13.34,1.7606032887706533
13.344,2.1118276523193344
13.348,1.8458077177056111
13.352,1.6721467823954299
13.356,2.2633744610357098
13.36,2.7020797077275347
13.364,2.4750847023969982
13.368,2.1801212785649113
13.372,2.5921594902465586
13.376,3.0858248456788715
13.38,2.9297251285461243
13.384,2.5528093532193452
13.388,2.7433810912189074
13.392,3.2162331510335207
13.396,3.0848492224467918
13.4,2.6224038104410283
13.404,2.5804520114616025
13.408,3.0041977019282058
13.412,2.9144403645768762
13.416,2.4139456465200055
13.42,2.2025606129027437
13.424,2.5957367754308507
13.428,2.5840292966458946
13.432,2.0988193425582722
13.436,1.7993030103098135
13.44,2.1989833277184516
13.444,2.3228874781925697
13.448,1.9017434496781789
13.452,1.5368603608803824
13.456,1.8812553618045058
13.46,2.1137788987834938
13.464,1.7563755880983081
13.468,1.328076989215333
13.472,1.5859667302283924
13.476,1.9349146395688877
13.48,1.6734476133715361
13.484,1.2220592646626756
13.488,1.3833623056998476
13.492,1.8724747527157888
13.496,1.7375135389447678
13.5,1.3095401478058193
13.504,1.3820614747237414
13.508,1.9814193469646852
13.512,1.9856470476370305
13.516,1.5859667302283924
13.52,1.566454265586799
13.524,2.2240243240084965
13.528,2.3749207172368187
13.532,2.0097124206949957
13.536,1.9010930341901258
13.54,2.5785007649974432
13.544,2.9147655723209027
13.548,2.6562254158197902
13.552,2.5362237582739908
13.556,3.0933046237914823
13.56,3.4669683216779958
13.564,3.2090785806649365
13.568,2.8884237450547516
13.572,3.2594857809890527
13.576,3.708922883233754
13.58,3.516725106514059
13.584,3.1092398032487836
13.588,3.2767217914224602
13.592,3.749248643493047
13.596,3.6390032182680443
13.6,3.2315179150027689
13.604,3.3053400728967972
13.608,3.8598192764620762
13.612,3.895917336049024
13.616,3.4829035011352971
13.62,3.338511262787506
13.624,3.7603057067899499
13.628,3.80941207613796
13.632,3.3485927028523292
13.636,2.9853356527746655
13.64,3.2214364749379456
13.644,3.2360708234191407
13.648,2.7248442498093937
13.652,2.2145932994317263
13.656,2.3583351222914644
13.66,2.4575234842195641
13.664,2.0162165755755268
13.668,1.485802745068213
13.672,1.5628769804025069
13.676,1.7596276655385736
13.68,1.3914924993005116
13.684,0.78595567992306314
13.688,0.66595402237726375
13.692,0.88546924959518947
13.696,0.58790416381089017
13.7,0.0022050168190617114
13.704,0.0012293935869820416
13.708,0.0015546013310085982
13.712,0.0015546013310085982
13.716,0.0015546013310085982
13.72,0.00057897809892892838
13.724,0.0015546013310085982
13.728,0.0015546013310085982
13.732,0.0012293935869820416
13.736,0.0015546013310085982
13.74,0.0015546013310085982
13.744,0.0015546013310085982
13.748,0.0018798090750351548
13.752,0.00090418584295548499
13.756,0.0012293935869820416
13.76,0.0015546013310085982
13.764,0.00090418584295548499
13.768,0.0012293935869820416
13.772,0.00057897809892892838
13.776,0.0018798090750351548
13.78,0.0012293935869820416
13.784,0.00057897809892892838
13.788,0.0015546013310085982
13.792,0.0018798090750351548
13.796,0.0018798090750351548
13.8,0.0018798090750351548
13.804,0.0012293935869820416
13.808,0.00090418584295548499
13.812,0.0015546013310085982
13.816,0.0015546013310085982
13.82,0.0018798090750351548
13.824,0.0015546013310085982
13.828,0.0018798090750351548
13.832,0.0018798090750351548
13.836,0.0015546013310085982
13.84,0.36676289787283167
13.844,0.66660443786531687
13.848,0.34594960225513205
13.852,0.020091442740522325
13.856,0.57619668502593413
13.86,0.9017296367965173
13.864,0.51733408335712738
13.868,0.042855984822381288
13.872,0.43570693960646167
13.876,0.89457506642793305
13.88,0.59408311094739474
13.884,0.079279252153355628
13.888,0.29261553223477677
13.892,0.84059058091952465
13.896,0.6363601176708471
13.9,0.10399504069937393
13.904,0.16806096627260558
13.908,0.83571246475912631
13.912,0.77034570820978843
13.916,0.26855015917681158
13.92,0.22302107501309365
13.924,1.0444958364241756
13.928,1.1719772720825858
13.932,0.71798726142151281
13.936,0.56774128368124366
13.94,1.4581600868259557
13.944,1.7866199082927778
13.948,1.4126310026622377
13.952,1.167424363666214
13.956,1.9791428927564994
13.96,2.4415883047622629
13.964,2.0991445503022987
13.968,1.7196271130233072
13.972,2.3352453724655788
13.976,2.9245218046416994
13.98,2.6269567188574001
13.984,2.0649977371795103
13.988,2.2516669822507538
13.992,2.7934630837989971
13.996,2.6874453592463396
14,2.3697173933323938
14.004,2.6487456377071794
14.008,3.4308702620910481
14.012,3.3827395159751177
14.016,2.545654782850761
14.02,2.0061351355107035
14.024,2.4399622660421301
14.028,2.3882542347419076
14.032,1.8893855554051697
14.036,1.7007650638697669
14.04,2.445165589946555
14.044,2.6565506235638168
14.048,2.1902027186297346
14.052,1.867921844299417
14.056,2.5934603212226648
14.06,2.9924902231432498
14.064,2.6032165535434615
14.068,2.1814221095410176
14.072,2.7876093444065191
14.076,3.3785118153027724
14.08,3.1219229052658193
14.084,2.6858193205262069
14.088,3.1713544823578559
14.092,3.9661622087587602
14.096,3.8777057023835368
14.1,3.4767245539987925
14.104,3.8552663680457044
14.108,4.6845461153134238
14.112,4.6816192456171848
14.116,4.5951139857061207
14.12,4.6897494392178487
14.124,4.7118635658116546
14.128,4.714465227763867
14.132,4.7141400200198404
14.136,4.7177173052041326
14.14,4.7199937594123185
14.144,4.7209693826443981
14.148,4.7206441749003716
14.152,4.7219450058764778
14.156,4.7222702136205044
14.16,4.7216197981324513
14.164,4.7219450058764778
14.168,4.7229206291085575
14.172,4.7225954213645309
14.176,4.723245836852584
14.18,4.7219450058764778
14.184,4.723245836852584
14.188,4.7225954213645309
14.192,4.7225954213645309
14.196,4.7222702136205044
14.2,4.7219450058764778
14.204,4.7222702136205044
14.208,4.7216197981324513
14.212,4.7222702136205044
14.216,4.7229206291085575
14.22,4.7219450058764778
14.224,4.7219450058764778
14.228,4.7219450058764778
14.232,4.7225954213645309
14.236,4.7219450058764778
14.24,4.7219450058764778
14.244,4.7219450058764778
14.248,4.7216197981324513
14.252,4.7216197981324513
14.256,4.7229206291085575
14.26,4.7229206291085575
14.264,4.7216197981324513
14.268,4.7219450058764778
14.272,4.7209693826443981
14.276,4.7206441749003716
14.28,4.7186929284362122
14.284,4.7125139812997077
14.288,4.7079610728833359
14.292,4.7011317102587782
14.296,4.5999921018665191
14.3,3.8432336815167218
14.304,3.5199771839543246
14.308,3.8533151215815451
14.312,3.74046803440433
14.316,3.2851771927671507
14.32,3.2994863335043192
14.324,4.0090896309702657
14.328,4.2243771575158462
14.332,3.9355926808202639
14.336,3.9336414343561046
14.34,4.6302364220609888
14.344,4.6923511011700612
14.348,4.6809688301291317
14.352,4.6943023476342205
14.356,4.7131643967877608
14.36,4.717392097460106
14.364,4.7190181361802388
14.368,4.7196685516682919
14.372,4.7212945903884247
14.376,4.7209693826443981
14.38,4.723245836852584
14.384,4.7222702136205044
14.388,4.7222702136205044
14.392,4.7212945903884247
14.396,4.7225954213645309
14.4,4.7222702136205044
14.404,4.7219450058764778
14.408,4.7222702136205044
14.412,4.7219450058764778
14.416,4.7219450058764778
14.42,4.7219450058764778
14.424,4.7219450058764778
14.428,4.7222702136205044
14.432,4.7225954213645309
14.436,4.7216197981324513
14.44,4.7219450058764778
14.444,4.7225954213645309
14.448,4.7216197981324513
14.452,4.723245836852584
14.456,4.7216197981324513
14.46,4.720318967156345
14.464,4.7219450058764778
14.468,4.7219450058764778
14.472,4.720318967156345
14.476,4.7199937594123185
14.48,4.7164164742280263
14.484,4.702757748978911
14.488,4.6123499961395282
14.492,4.1060015386901796
14.496,3.2237129291461315
14.5,2.2653257074998692
14.504,1.8428808480093721
14.508,1.994102448981721
14.512,1.8093844503746368
14.516,1.2919789296283852
14.52,1.0962038677243982
14.524,1.5433645157609135
14.528,1.5807634063239675
14.532,1.0158775549498387
14.536,0.59375790320336819
14.54,0.99441384384408593
14.544,1.2500271306489594
14.548,0.99116176640382037
14.552,0.86985927788191475
14.556,1.4841767063480802
14.56,1.9973545264219865
14.564,1.8874343089410104
14.568,1.727106891135918
14.572,2.1615844371553976
14.576,2.7053317851678003
14.58,2.6445179370348342
14.584,2.3837013263255358
14.588,2.6194769407447893
14.592,3.1498907712521031
14.596,3.1989971406001132
14.6,2.9537905016040895
14.604,3.0711904971976765
14.608,3.5703843842784408
14.612,3.7190043232985772
14.616,3.4861555785755627
14.62,3.4685943603981286
14.624,3.8796569488476962
14.628,4.111530070338631
14.632,3.912828138738405
14.636,3.7980298050970305
14.64,4.0829117888642941
14.644,4.3599887867749203
14.648,4.1921815908572171
14.652,4.0094148387142923
14.656,4.1817749430483673
14.66,4.4718602507200558
14.664,4.3147849103552289
14.668,4.0110408774344251
14.672,4.0555943383660633
14.676,4.4708846274879761
14.68,4.6494236789585557
14.684,4.671212597808335
14.688,4.6923511011700612
14.692,4.7063350341632031
14.696,4.7047089954430703
14.7,4.6923511011700612
14.704,4.6767411294567864
14.708,4.6897494392178487
14.712,4.6913754779379815
14.716,4.68584694628953
14.72,4.6806436223851051
14.724,4.6933267244021408
14.728,4.7017821257468313
14.732,4.7017821257468313
14.736,4.7030829567229375
14.74,4.7050342031870969
14.744,4.7102375270915218
14.748,4.7121887735556811
14.752,4.7128391890437342
14.756,4.7125139812997077
14.76,4.7157660587399732
14.764,4.7170668897160795
14.768,4.7177173052041326
14.772,4.7170668897160795
14.776,4.7177173052041326
14.78,4.7199937594123185
14.784,4.7190181361802388
14.788,4.7199937594123185
14.792,4.7196685516682919
14.796,4.7199937594123185
14.8,4.7199937594123185
14.804,4.7190181361802388
14.808,4.7199937594123185
14.812,4.7190181361802388
14.816,4.7186929284362122
14.82,4.7186929284362122
14.824,4.7186929284362122
14.828,4.7199937594123185
14.832,4.7183677206921857
14.836,4.717392097460106
14.84,4.7141400200198404
14.844,4.7121887735556811
14.848,4.6969040095864329
14.852,4.4874702224333305
14.856,3.8994946212333161
14.86,3.5472946344525553
14.864,2.9898885611910373
14.868,2.3905306889500935
14.872,2.1404459337936714
14.876,2.2220730775443371
14.88,2.0077611742308363
14.884,1.6032027406617999
14.888,1.4445013615768403
14.892,1.6393008002487477
14.896,1.6363739305525087
14.9,1.3846631366759539
14.904,1.3040116161573678
14.908,1.5690559275390115
14.912,1.7726359752996359
14.916,1.695561739965342
14.92,1.6874315463646781
14.924,1.9378415092651267
14.928,2.3401234886259772
14.932,2.4272791640250944
14.936,2.4064658684073947
14.94,2.4832148959976621
14.944,2.8506996467476711
14.948,2.9297251285461243
14.952,2.8477727770514321
14.956,2.761267517140368
14.96,3.0523284480441362
14.964,3.1651755352213513
14.968,3.0854996379348449
14.972,2.9284242975700181
14.976,3.1232237362419255
14.98,3.1641999119892716
14.984,2.9372049066587351
14.988,2.7046813696797471
14.992,2.7557389854919165
14.996,2.6959007605910301
15,2.3365462034416851
15.004,2.0438592338177841
15.008,2.0516642196744215
15.012,2.020444276247872
15.016,1.6497074480575975
15.02,1.3365323905600235
15.024,1.3336055208637845
15.028,1.333930728607811
15.032,0.9241689711343497
15.036,0.50530139682814479
15.04,0.45001608034363016
15.044,0.49424433353124186
15.048,0.14106872351840138
15.052,0.0015546013310085982
15.056,0.0015546013310085982
15.06,0.0022050168190617114
15.064,0.0018798090750351548
15.068,0.0015546013310085982
15.072,0.0015546013310085982
15.076,0.0015546013310085982
15.08,0.0015546013310085982
15.084,0.00090418584295548499
15.088,0.0015546013310085982
15.092,0.0012293935869820416
15.096,0.00090418584295548499
15.1,0.0012293935869820416
15.104,0.0015546013310085982
15.108,0.0018798090750351548
15.112,0.0015546013310085982
15.116,0.00057897809892892838
15.12,0.0012293935869820416
15.124,0.0012293935869820416
15.128,0.0015546013310085982
15.132,0.0015546013310085982
15.136,0.0015546013310085982
15.14,0.0015546013310085982
15.144,0.0012293935869820416
15.148,0.0015546013310085982
15.152,0.0012293935869820416
15.156,0.080580083129461855
15.16,0.48806538639473729
15.164,0.52026095305336639
15.168,0.38497453153831884
15.172,0.48058560828212649
15.176,0.82530581695027649
15.18,0.85164764421642758
15.184,0.65131967389606871
15.188,0.64969363517593592
15.192,0.96254348492948338
15.196,1.0571789384412114
15.2,0.85815179909695871
15.204,0.79701274321996607
15.208,1.0737645333865657
15.212,1.244498599000508
15.216,1.064008301065769
15.22,0.96156786169740371
15.224,1.1778310114750639
15.228,1.4399484531604685
15.232,1.3352315595839173
15.236,1.2194576027104631
15.24,1.3501911158091389
15.244,1.6269429059757385
15.248,1.5371855686244089
15.252,1.379459812771529
15.256,1.4409240763925482
15.26,1.7619041197467595
15.264,1.7638553662109189
15.268,1.6305201911600307
15.272,1.6308453989040572
15.276,1.9433700409135781
15.28,2.0376802866812795
15.284,1.9183290446235333
15.288,1.8672714288113639
15.292,2.1336165711691137
15.296,2.3241883091686759
15.3,2.2506913590186741
15.304,2.172316292708274
15.308,2.362237615219783
15.312,2.6373633666662499
15.316,2.6110215394000988
15.32,2.5131340084481053
15.324,2.5684193249326199
15.328,2.8250082349695731
15.332,2.7859833056863863
15.336,2.7310231969458982
15.34,2.8568785938841756
15.344,3.4373744169715792
15.348,3.7752652630151715
15.352,3.8370547343802173
15.356,3.5625793984218035
15.36,3.4155854981217999
15.364,3.1069633490405977
15.368,2.7918370450788643
15.372,2.5944359444547445
15.376,2.7963899534952361
15.38,2.8373661292425822
15.384,2.6289079653215595
15.388,2.4383362273219973
15.392,2.5567118461476639
15.396,2.5837040889018681
15.4,2.2978464819025248
15.404,2.0464608957699966
15.408,2.0783312546845991
15.412,2.0812581243808381
15.416,1.7547495493781753
15.42,1.4949085619009566
15.424,1.5352343221602496
15.428,1.6285689446958713
15.432,1.3430365454405546
15.436,1.0588049771613441
15.44,1.0828703502193093
15.444,1.281897489563562
15.448,1.1049844768131152
15.452,0.86823323916178197
15.456,0.88904653477948159
15.46,1.1739285185467452
15.464,1.1170171633420978
15.468,0.93457561894319952
15.472,0.94823434419231489
15.476,1.2890520599321462
15.48,1.3830370979558211
15.484,1.2487262996728532
15.488,1.2207584336865693
15.492,1.5219008046551608
15.496,1.7147489968629088
15.5,1.6334470608562697
15.504,1.5801129908359144
15.508,1.7908476089651231
15.512,2.0045090967905708
15.516,1.8926376328454353
15.52,1.7788149224361405
15.524,1.893613256077515
15.528,2.1573567364830524
15.532,2.0900387334695552
15.536,1.9703622836677823
15.54,2.0054847200226504
15.544,2.2864642108615953
15.548,2.2344309718173463
15.552,2.074753969500307
15.556,2.0275988466164563
15.56,2.2867894186056219
15.564,2.2451628273702227
15.568,2.0295500930806156
15.572,1.9114996819989756
15.576,2.1079251593910158
15.58,2.0789816701726522
15.584,1.8223927601356991
15.588,1.6721467823954299
15.592,1.8249944220879115
15.596,1.8090592426306102
15.6,1.4952337696449831
15.604,1.284824359259801
15.608,1.4126310026622377
15.612,1.4438509460887872
15.616,1.1140902936458588
15.62,0.86563157720956951
15.624,0.96774680883390829
15.628,1.0727889101544861
15.632,0.78140277150669135
15.636,0.51635846012504771
15.64,0.60806704394053668
15.644,0.80059002840425819
15.648,0.58562770960270427
15.652,0.31895735950092785
15.656,0.39668201032327488
15.66,0.68253961732261814
15.664,0.57294460758566856
15.668,0.3261119298695121
15.672,0.37131580628920346
15.676,0.65717341328854673
15.68,0.57196898435358889
15.684,0.26432245850446634
15.688,0.24253353965468705
15.692,0.57164377660956234
15.696,0.64579114224761724
15.7,0.41684489045292139
15.704,0.38399890830623917
15.708,0.7196133001416456
15.712,0.88904653477948159
15.716,0.67798670890624635
15.72,0.57164377660956234
15.724,0.83961495768744498
15.728,1.0662847552739549
15.732,0.88026592569076456
15.736,0.72839390923036262
15.74,0.94075456607970409
15.744,1.2396204828401096
15.748,1.1059601000451948
15.752,0.91701440076576546
15.756,1.046447082888335
15.76,1.3781589817954227
15.764,1.3150686794542708
15.768,1.1010819838847965
15.772,1.1514891842089128
15.776,1.4783229669556022
15.78,1.4675911114027258
15.784,1.2266121730790474
15.788,1.2090509549016133
15.792,1.5186487272148952
15.796,1.5775113288837019
15.8,1.3352315595839173
15.804,1.2607589862018358
15.808,1.5362099453923292
15.812,1.6734476133715361
15.816,1.4623877874983009
15.82,1.3462886228808202
15.824,1.5807634063239675
15.828,1.7846686618286185
15.832,1.5966985857812688
15.836,1.4259645201673266
15.84,1.5895440154126845
15.844,1.8425556402653456
15.848,1.7023911025898997
15.852,1.5267789208155591
15.856,1.6337722686002962
15.86,1.9306869388965424
15.864,1.8662958055792842
15.868,1.6903584160609171
15.872,1.7521478874259628
15.876,2.0695506455958821
15.88,2.0636969062034041
15.884,1.8389783550810535
15.888,1.8175146439753007
15.892,2.1128032755514141
15.896,2.186950641189469
15.9,1.9768664385483135
15.904,1.9098736432788428
15.908,2.1716658772202209
15.912,2.3245135169127025
15.916,2.1303644937288482
15.92,2.0181678220396861
15.924,2.2227234930323903
15.928,2.4386614350660238
15.932,2.27280548561248
15.936,2.1202830536640249
15.94,2.2594719681073911
15.944,2.5310204343695659
15.948,2.4139456465200055
15.952,2.2223982852883637
15.956,2.2767079785407986
15.96,2.5528093532193452
15.964,2.4272791640250944
15.968,2.1228847156162374
15.972,2.0685750223638024
15.976,2.4162221007281914
15.98,2.588907412806293
15.984,2.6022409303113818
15.988,2.7401290137786418
15.992,3.0881012998870574
15.996,2.9599694487405941
16,2.2545938519469928
16.004,1.8132869433029555
16.008,1.9193046678556129
16.012,1.9778420617803931
16.016,1.7202775285113603
16.02,1.5840154837642331
16.024,1.7993030103098135
16.028,1.9508498190261889
16.032,1.7033667258219793
16.036,1.4984858470852487
16.04,1.6649922120268457
16.044,1.9027190729102585
16.048,1.7258060601598118
16.052,1.5189739349589217
16.056,1.655235979706049
16.06,1.9586548048828263
16.064,1.8630437281390186
16.068,1.6422276699449867
16.072,1.710196088446537
16.076,2.0324769627768546
16.08,2.0119888749031816
16.084,1.773286390787689
16.088,1.782066999876406
16.092,2.1049982896947768
16.096,2.1498769583704416
16.1,1.8939384638215415
16.104,1.8288969150162302
16.108,2.1186570149438921
16.112,2.2539434364589397
16.116,2.0207694839918986
16.12,1.9004426187020727
16.124,2.1394703105615918
16.128,2.34174952734611
16.132,2.1371938563534059
16.136,1.9635329210432246
16.14,2.146624880930176
16.144,2.4097179458476603
16.148,2.2601223835954443
16.152,2.0558919203467667
16.156,2.166462553315796
16.16,2.4532957835472189
16.164,2.3397982808819506
16.168,2.0861362405412365
16.172,2.1267872085445561
16.176,2.4250027098169085
16.18,2.3690669778443407
16.184,2.0851606173091568
16.188,2.0545910893706605
16.192,2.3459772280184552
16.196,2.3680913546122611
16.2,2.0809329166368116
16.204,1.9752403998281807
16.208,2.2191462078480981
16.212,2.2838625489093829
16.216,1.9898747483093757
16.22,1.8262952530640177
16.224,2.0441844415618107
16.228,2.1784952398447786
16.232,1.9036946961423382
16.236,1.6838542611803859
16.24,1.862068104906939
16.244,2.0604448287631385
16.248,1.8341002389206551
16.252,1.5771861211396754
16.256,1.7027163103339262
16.26,1.9541018964664545
16.264,1.7869451160368044
16.268,1.5043395864777267
16.272,1.5849911069963127
16.276,1.8971905412618071
16.28,1.8240187988558318
16.284,1.5339334911841433
16.288,1.5358847376483027
16.292,1.8497102106339298
16.296,1.8467833409376908
16.3,1.56352739589056
16.304,1.5199495581910014
16.308,1.8526370803301688
16.312,1.9612564668350387
16.316,1.7105212961905636
16.32,1.6103573110303842
16.324,1.9114996819989756
16.328,2.0949168496299535
16.332,1.8636941436270718
16.336,1.7020658948458731
16.34,1.951500234514242
16.344,2.2041866516228765
16.348,2.0142653291113675
16.352,1.7898719857330434
16.356,1.9547523119545076
16.36,2.2464636583463289
16.364,2.1157301452476531
16.368,1.8705235062516294
16.372,1.9778420617803931
16.376,2.307277506479295
16.38,2.2432115809060633
16.384,1.9609312590910122
16.388,1.9833705934288446
16.392,2.32191185496049
16.396,2.3453268125304021
16.4,2.0620708674832713
16.404,2.005809927766677
16.408,2.3274403866089415
16.412,2.4217506323766429
16.416,2.1449988422100432
16.42,2.0207694839918986
16.424,2.3128060381277464
16.428,2.4994752831989899
16.432,2.2614232145715505
16.436,2.077680839196546
16.44,2.3027245980629232
16.444,2.5365489660180174
16.448,2.34174952734611
16.452,2.1222343001281843
16.456,2.3020741825748701
16.46,2.6028913457994349
16.464,2.4669545087963343
16.468,2.200934574182611
16.472,2.2991473128786311
16.476,2.6360625356901437
16.48,2.5856553353660274
16.484,2.310204376175534
16.488,2.3401234886259772
16.492,2.6975267993111629
16.496,2.7349256898742169
16.5,2.45979993842775
16.504,2.4019129599910229
16.508,2.7131367710244376
16.512,2.8119999252085108
16.516,2.5469556138268672
16.52,2.4230514633527491
16.524,2.6949251373589505
16.528,2.8611062945565209
16.532,2.6110215394000988
16.536,2.4243522943288554
16.54,2.651997715147445
16.544,2.8923262379830703
16.548,2.6822420353419147
16.552,2.4298808259773068
16.556,2.5804520114616025
16.56,2.8692364881571848
16.564,2.718014887184836
16.568,2.4298808259773068
16.572,2.5017517374071758
16.576,2.8012680696556345
16.58,2.7024049154715613
16.584,2.3570342913153581
16.588,2.2919927425100468
16.592,2.5329716808337253
16.596,2.5037029838713352
16.6,2.3222370627045166
16.604,2.4832148959976621
16.608,3.0318403601704631
16.612,3.3427389634598512
16.616,3.0845240147027653
16.62,2.620452563976869
16.624,2.5420774976664688
16.628,2.4848409347177949
16.632,2.140771141537698
16.636,1.9462969106098171
16.64,2.2321545176091604
16.644,2.4822392727655824
16.648,2.2555694751790725
16.652,2.0110132516711019
16.656,2.2188210001040716
16.66,2.52874398016138
16.664,2.3729694707726594
16.668,2.0952420573739801
16.672,2.2308536866330542
16.676,2.5876065818301868
16.68,2.5089063077757601
16.684,2.2051622748549562
16.688,2.2399595034657978
16.692,2.59768802189501
16.696,2.6012653070793021
16.7,2.2936187812301796
16.704,2.2373578415135853
16.708,2.5781755572534166
16.712,2.6471195989870466
16.716,2.3466276435065083
16.72,2.2223982852883637
16.724,2.542727913154522
16.728,2.7046813696797471
16.732,2.4246775020728819
16.736,2.2227234930323903
16.74,2.485491350205848
16.744,2.7290719504817389
16.748,2.4984996599669103
16.752,2.2380082570016384
16.756,2.4240270865848288
16.76,2.7160636407206766
16.764,2.5381750047381502
16.768,2.2347561795613728
16.772,2.3365462034416851
16.776,2.6685833100927994
16.78,2.5697201559087262
16.784,2.2510165667627007
16.788,2.2864642108615953
16.792,2.6438675215467811
16.796,2.6230542259290814
16.8,2.2763827707967721
16.804,2.2048370671109296
16.808,2.5414270821784157
16.812,2.5986636451270897
16.816,2.2702038236602675
16.82,2.1173561839677859
16.824,2.4334581111615989
16.828,2.580126803717576
16.832,2.2734559011005331
16.836,2.0480869344901294
16.84,2.3111799994076136
16.844,2.5352481350419112
16.848,2.2783340172609314
16.852,2.0077611742308363
16.856,2.2197966233361512
16.86,2.511182761983946
16.864,2.3108547916635871
16.868,1.9918259947735351
16.872,2.1222343001281843
16.876,2.45979993842775
16.88,2.3258143478888087
16.884,1.980118515988579
16.888,2.0298753008246422
16.892,2.4110187768237665
16.896,2.3807744566292968
16.9,2.0331273782649077
16.904,1.9986553573980927
16.908,2.3872786115098279
16.912,2.4435395512264222
16.916,2.1134536910394672
16.92,1.9993057728861459
16.924,2.3684165623562876
16.928,2.5336220963217784
16.932,2.244187204138143
16.936,2.0477617267461028
16.94,2.3602863687556237
16.944,2.5996392683591694
16.948,2.3440259815542959
16.952,2.0812581243808381
16.956,2.3290664253290743
16.96,2.6471195989870466
16.964,2.4591495229396969
16.968,2.1521534125786275
16.972,2.3017489748308435
16.976,2.6601279087481089
16.98,2.5502076912671328
16.984,2.2152437149197794
16.988,2.2682525771961082
16.992,2.6516725074034184
16.996,2.6126475781202316
17,2.2607727990834974
17.004,2.2256503627286293
17.008,2.6198021484888159
17.012,2.6867949437582865
17.016,2.3502049286908004
17.02,2.2259755704726558
17.024,2.5921594902465586
17.028,2.752486908051651
17.032,2.4412630970182363
17.036,2.2298780634009745
17.04,2.5404514589463361
17.044,2.7755766578775365
17.048,2.519963371072663
17.052,2.2562198906671256
17.056,2.5043533993593883
17.06,2.8198049110651482
17.064,2.6256558878812939
17.068,2.3111799994076136
17.072,2.4591495229396969
17.076,2.8198049110651482
17.08,2.7020797077275347
17.084,2.3739450940047391
17.088,2.4477672518987674
17.092,2.8536265164439101
17.096,2.8409434144268744
17.1,2.5020769451512024
17.104,2.456873068731511
17.108,2.8321628053381573
17.112,2.8907001992629375
17.116,2.5560614306596108
17.12,2.4363849808578379
17.124,2.7963899534952361
17.128,2.9511888396518771
17.132,2.6513472996593919
17.136,2.4477672518987674
17.14,2.7463079609151464
17.144,2.979807121126214
17.148,2.7176896794408094
17.152,2.4467916286666878
17.156,2.6705345565569587
17.16,2.9833844063105062
17.164,2.7967151612392627
17.168,2.4754099101410247
17.172,2.6009400993352756
17.176,2.9368796989147086
17.18,2.7963899534952361
17.184,2.4113439845677931
17.188,2.3980104670627043
17.192,2.7258198730414733
17.196,2.723868626577314
17.2,2.5352481350419112
17.204,2.7196409259049688
17.208,3.3173727594257798
17.212,3.5999782889848575
17.216,3.2650143126375042
17.22,2.7567146087239962
17.224,2.7550885700038634
17.228,2.7381777673144825
17.232,2.3892298579739872
17.236,2.2058126903430093
17.24,2.5502076912671328
17.244,2.8152520026487764
17.248,2.563216001028195
17.252,2.3004481438547373
17.256,2.551508522243239
17.26,2.8679356571810786
17.264,2.6698841410689056
17.268,2.3495545132027473
17.272,2.5066298535675742
17.276,2.8747650198056363
17.28,2.7667960487888195
17.284,2.4263035407930147
17.288,2.4724830404447857
17.292,2.8526508932118304
17.296,2.8188292878330685
17.3,2.4653284700762015
17.304,2.4279295795131475
17.308,2.8142763794166967
17.312,2.8744398120616097
17.316,2.531670849857619
17.32,2.3950835973664653
17.324,2.7518364925635979
17.328,2.899155600607628
17.332,2.5814276346936822
17.336,2.3661401081481017
17.34,2.6731362185091712
17.344,2.9007816393277608
17.348,2.6289079653215595
17.352,2.3570342913153581
17.356,2.5983384373830631
17.36,2.9056597554881591
17.364,2.7072830316319596
17.368,2.3856525727896951
17.372,2.5352481350419112
17.376,2.8858220831025392
17.38,2.7534625312837306
17.384,2.3986608825507574
17.388,2.4536209912912454
17.392,2.8415938299149275
17.396,2.8054957703279797
17.4,2.4428891357383691
17.404,2.399636505782837
17.408,2.7863085134304129
17.412,2.8383417524746619
17.416,2.4880930121580604
17.42,2.3560586680832785
17.424,2.7225677956012078
17.428,2.8692364881571848
17.432,2.5424027054104954
17.436,2.32191185496049
17.44,2.6295583808096126
17.444,2.8513500622357242
17.448,2.5700453636527527
17.452,2.2916675347660203
17.456,2.5339473040658049
17.46,2.8363905060105026
17.464,2.6165500710485503
17.468,2.2780088095169049
17.472,2.4302060337213334
17.476,2.7895605908706784
17.48,2.6438675215467811
17.484,2.2731306933565065
17.488,2.327765594352968
17.492,2.7228930033452343
17.496,2.6828924508299679
17.5,2.3196354007523041
17.504,2.2812608869571704
17.508,2.6793151656456757
17.512,2.7274459117616061
17.516,2.3674409391242079
17.52,2.2367074260255322
17.524,2.6162248633045238
17.528,2.7661456333007663
17.532,2.4376858118339442
17.536,2.2210974543122575
17.54,2.5424027054104954
17.544,2.7680968797649257
17.548,2.47963761081337
17.552,2.1967068735102657
17.556,2.4513445370830595
17.56,2.7580154397001024
17.564,2.5371993815060705
17.568,2.2012597819266375
17.572,2.3687417701003142
17.576,2.7378525595704559
17.58,2.603541761287488
17.584,2.2458132428582758
17.588,2.3128060381277464
17.592,2.7098846935841721
17.596,2.6633799861883745
17.6,2.2916675347660203
17.604,2.2526426054828335
17.608,2.6585018700279761
17.612,2.7115107323043048
17.616,2.3628880307078362
17.62,2.2419107499299571
17.624,2.6220786026970018
17.628,2.7726497881812975
17.632,2.4500437061069533
17.636,2.2432115809060633
17.64,2.5671184939565137
17.644,2.8012680696556345
17.648,2.52874398016138
17.652,2.2555694751790725
17.656,2.511182761983946
17.66,2.8188292878330685
17.664,2.5921594902465586
17.668,2.2555694751790725
17.672,2.4201245936565101
17.676,2.7976907844713423
17.68,2.6754126727173571
17.684,2.3193101930082776
17.688,2.3778475869330578
17.692,2.7615927248843946
17.696,2.7004536690074019
17.7,2.3137816613598261
17.704,2.2623988378036302
17.708,2.6594774932600558
17.712,2.7089090703520924
17.716,2.3518309674109332
17.72,2.2298780634009745
17.724,2.6165500710485503
17.728,2.7609423093963414
17.732,2.4243522943288554
17.736,2.2074387290631421
17.74,2.5433783286425751
17.744,2.7817556050140411
17.748,2.5043533993593883
17.752,2.2266259859607089
17.756,2.4828896882536355
17.76,2.8009428619116079
17.764,2.5853301276220009
17.768,2.2536182287149131
17.772,2.4002869212708902
17.776,2.6942747218708973
17.78,2.456873068731511
17.784,2.0968680960941128
17.788,2.3264647633768618
17.792,3.0061489483923651
17.796,3.3004619567363989
17.8,3.2185096052417066
17.804,3.2139566968253348
17.808,3.2903805166715756
17.812,2.94240823056316
17.816,2.3619124074757565
17.82,2.181096901796991
17.824,2.5908586592704523
17.828,2.7798043585498817
17.832,2.4715074172127061
17.836,2.2692282004281878
17.84,2.6015905148233287
17.844,2.8480979847954586
17.848,2.5710209868848324
17.852,2.2900414960458875
17.856,2.5375245892500971
17.86,2.8380165447306354
17.864,2.6217533949529752
17.868,2.3027245980629232
17.872,2.4780115720932372
17.876,2.8523256854678039
17.88,2.7186653026728891
17.884,2.3625628229638096
17.888,2.4350841498817317
17.892,2.8415938299149275
17.896,2.8012680696556345
17.9,2.4354093576257583
17.904,2.4025633754790761
17.908,2.8054957703279797
17.912,2.8581794248602819
17.916,2.5115079697279725
17.92,2.3853273650456686
17.924,2.7589910629321821
17.928,2.9046841322560795
17.932,2.5778503495093901
17.936,2.373294678516686
17.94,2.7085838626080658
17.944,2.9570425790443551
17.948,2.6838680740620475
17.952,2.4022381677350495
17.956,2.6402902363624889
17.96,2.9440342692832928
17.964,2.7232182110892609
17.968,2.387929026997881
17.972,2.5417522899224423
17.976,2.9092370406724513
17.98,2.7843572669662535
17.984,2.4289052027452271
17.988,2.4841905192297418
17.992,2.8731389810855035
17.996,2.8276098969217855
18,2.4545966145233251
18.004,2.4054902451753151
18.008,2.7963899534952361
18.012,2.8458215305872727
18.016,2.4864669734379277
18.02,2.3450016047863755
18.024,2.7053317851678003
18.028,2.8503744390036445
18.032,2.5264675259531941
18.036,2.3128060381277464
18.04,2.6282575498335063
18.044,2.8513500622357242
18.048,2.5576874693797436
18.052,2.2604475913394708
18.056,2.4932963360624854
18.06,2.7801295662939083
18.064,2.5407766666903626
18.068,2.1950808347901329
18.072,2.3511805519228801
18.076,2.718014887184836
18.08,2.5752486875571776
18.084,2.1986581199744251
18.088,2.221422662056284
18.092,2.591834282502532
18.096,2.5212642020487692
18.1,2.1482509196503088
18.104,2.1219090923841577
18.108,2.5336220963217784
18.112,2.577199934021337
18.116,2.215568922663806
18.12,2.0910143567016348
18.124,2.4786619875812903
18.128,2.6110215394000988
18.132,2.2565450984111521
18.136,2.0347534169850405
18.14,2.3765467559569515
18.144,2.6152492400724441
18.148,2.3290664253290743
18.152,2.0526398429065011
18.156,2.3303672563051805
18.16,2.6438675215467811
18.164,2.4103683613357134
18.168,2.0731279307801742
18.172,2.2497157357865945
18.176,2.620452563976869
18.18,2.4754099101410247
18.184,2.1131284832954407
18.188,2.1863002257014159
18.192,2.5866309585981071
18.196,2.5241910717450082
18.2,2.1476005041622557
18.204,2.1267872085445561
18.208,2.545654782850761
18.212,2.5843545043899212
18.216,2.2171949613839388
18.22,2.0962176806060597
18.224,2.4958979980146978
18.228,2.6399650286184624
18.232,2.3030498058069497
18.236,2.0952420573739801
18.24,2.4432143434823956
18.244,2.6744370494852774
18.248,2.3833761185815092
18.252,2.1105268213432282
18.256,2.3863029882777482
18.26,2.7050065774237737
18.264,2.4760603256290779
18.268,2.1323157401930075
18.272,2.3004481438547373
18.276,2.660778324236162
18.28,2.5046786071034148
18.284,2.1358930253772996
18.288,2.2110160142474342
18.292,2.6126475781202316
18.296,2.5492320680350531
18.3,2.1654869300837163
18.304,2.1345921944011934
18.308,2.5505328990111593
18.312,2.5954115676868241
18.316,2.2347561795613728
18.32,2.1141041065275203
18.324,2.5056542303354945
18.328,2.6386641976423562
18.332,2.2936187812301796
18.336,2.0812581243808381
18.34,2.4263035407930147
18.344,2.6458187680109404
18.348,2.304350636783056
18.352,1.931012146640569
18.356,2.140771141537698
18.36,2.491345089598326
18.364,2.4646780545881484
18.368,2.4269539562810678
18.372,2.8630575410206802
18.376,3.4442037795961369
18.38,3.3287550304667093
18.384,2.6110215394000988
18.388,2.2952448199503124
18.392,2.5202885788166896
18.396,2.4357345653697848
18.4,2.0910143567016348
18.404,2.0939412263978738
18.408,2.517036501376424
18.412,2.5505328990111593
18.416,2.1661373455717694
18.42,2.0341030014969874
18.424,2.4298808259773068
18.428,2.5638664165162481
18.432,2.2246747394965496
18.436,2.017517406551633
18.44,2.3667905236361548
18.444,2.5941107367107179
18.448,2.2897162883018609
18.452,2.002883058070438
18.456,2.275732355308719
18.46,2.5788259727414697
18.464,2.3482536822266411
18.468,2.0188182375277393
18.472,2.2048370671109296
18.476,2.5687445326766465
18.48,2.4100431535916869
18.484,2.0480869344901294
18.488,2.13491740214522
18.492,2.5450043673627079
18.496,2.4858165579498746
18.5,2.1150797297596
18.504,2.1010957967664581
18.508,2.5173617091204505
18.512,2.5479312370589469
18.516,2.1791456553328317
18.52,2.057843166810926
18.524,2.4607755616598297
18.528,2.5960619831748772
18.532,2.2581711371312849
18.536,2.0545910893706605
18.54,2.4093927381036337
18.544,2.6415910673385952
18.548,2.3508553441788536
18.552,2.0708514765719883
18.556,2.3502049286908004
18.56,2.6624043629562948
18.564,2.448092459642794
18.568,2.1280880395206623
18.572,2.3186597775202245
18.576,2.6812664121098351
18.58,2.5251666949770879
18.584,2.1586575674591586
18.588,2.2409351266978774
18.592,2.646143975754967
18.596,2.5866309585981071
18.6,2.2139428839436732
18.604,2.1908531341177877
18.608,2.5970376064069569
18.612,2.6354121202020906
18.616,2.2802852637250908
18.62,2.1580071519711055
18.624,2.5365489660180174
18.628,2.6653312326525338
18.632,2.3264647633768618
18.636,2.112152860063361
18.64,2.4461412131786346
18.644,2.6506968841713388
18.648,2.3433755660662428
18.652,2.0604448287631385
18.656,2.3410991118580569
18.66,2.6419162750826217
18.664,2.4058154529193416
18.668,2.0750791772443336
18.672,2.266951746220002
18.676,2.6298835885536391
18.68,2.4724830404447857
18.684,2.1046730819507502
18.688,2.1960564580222126
18.692,2.6087450851919129
18.696,2.5550858074275311
18.7,2.1820725250290707
18.704,2.1638608913635835
18.708,2.5736226488370448
18.712,2.6162248633045238
18.716,2.2542686442029662
18.72,2.1323157401930075
18.724,2.5293943956494331
18.728,2.6532985461235512
18.732,2.3030498058069497
18.736,2.0874370715173427
18.74,2.4315068646974396
18.744,2.6428918983147014
18.748,2.3394730731379241
18.752,2.0614204519952182
18.756,2.3482536822266411
18.76,2.6451683525228873
18.764,2.4019129599910229
18.768,2.0662985681556165
18.772,2.261748422315577
18.776,2.6272819266014267
18.78,2.4620763926359359
18.784,2.0903639412135817
18.788,2.1833733560051769
18.792,2.585980543110054
18.796,2.5121583852160256
18.8,2.1323157401930075
18.804,2.1147545220155735
18.808,2.5339473040658049
18.812,2.5635412087722216
18.816,2.1980077044863719
18.82,2.0802825011487585
18.824,2.4809384417894762
18.828,2.6038669690315146
18.832,2.2656509152438957
18.836,2.0695506455958821
18.84,2.4383362273219973
18.844,2.6562254158197902
18.848,2.344676397042349
18.852,2.0487373499781825
18.856,2.3303672563051805
18.86,2.623379433673108
18.864,2.3784980024211109
18.868,2.0428836105857044
18.872,2.250040943530621
18.876,2.6191517330007628
18.88,2.4519949525711127
18.884,2.0822337476129178
18.888,2.1823977327730972
18.892,2.6025661380554084
18.896,2.5407766666903626
18.9,2.1589827752031852
18.904,2.143698011233937
18.908,2.5645168320043012
18.912,2.585980543110054
18.916,2.2152437149197794
18.92,2.1023966277425643
18.924,2.5076054767996538
18.928,2.5778503495093901
18.932,2.1267872085445561
18.936,1.8506858338660095
18.94,2.2936187812301796
18.944,2.7563894009799697
18.948,2.7762270733655896
