-1.47206426797551
-2.2638157938495
-2.98267754255888
-3.56698651989741
-3.97564117149461
-4.19390940882157
-4.23469824042733
-4.13503524873374
-3.9484005710857
-3.73436855384324
-3.5475883167392
-3.42829934171614
-3.39626791938973
-3.44928348881063
-3.56633119984624
-3.71450566624208
-3.85791873189532
-3.96649047034621
-4.02268279927509
-4.02487204109395
-3.98696221004158
-3.93474912993939
-3.90020911571359
-3.91515254855441
-4.00553740868153
-4.18729686541885
-4.46399411068973
-4.82617577216336
-5.252082009301
-5.70940422248541
-6.15796778748563
-6.55340027603256
-6.85187362505318
-7.01580355754799
-7.01998609062473
-6.85719190135048
-6.54192590879178
-6.1110749096954
-5.62059972007274
-5.13822863364938
-4.73308599398706
-4.46406712493416
-4.36927373365142
-4.45877047339946
-4.71229011492968
-5.08245048710975
-5.50282938326201
-5.89919661124014
-6.20159315080986
-6.35490999276815
-6.32612070356813
-6.10718408208756
-5.71359998552421
-5.17942314471522
-4.55004810389602
-3.87422335783833
-3.19659507944505
-2.55174715876506
-1.96032690931653
-1.42751278572422
-0.943814993219964
-0.487974135058751
-0.0314962129575527
0.455877876160136
1.00068384616658
1.62124469738103
2.32509848194197
3.10890930590432
3.96086014779993
4.86487276675805
5.80545485320457
6.77173191573507
7.75940147891095
8.76994012569669
9.80724622645335
10.8727544770959
11.96063069623
13.0547381222223
14.128602318691
15.1487136986489
16.0804651025808
16.8951588956695
17.5761168347655
18.1221239839649
18.5471785240511
18.8765690066555
19.1403274137903
19.3657912447765
19.5711509448203
19.7614436744569
19.9276471339015
20.0486143114885
20.0948752007134
20.0330299397997
19.8296253479546
19.4539279229956
18.8796437720025
18.0861229774351
17.0597271712858
15.7957831656023
14.3010034511907
12.595658054105
10.7143975358344
8.70465365798942
6.62203851710748
4.52300992077352
2.45601746927785
0.453080813936207
-1.47598496354283
-3.34482270416413
-5.18628977175209
-7.04298809665488
-8.95411832733647
-10.9412010351442
-12.9956665416747
-15.0711313047574
-17.082397429229
-18.9120048589777
-20.4237797035135
-21.4815173674275
-21.9699397890694
-21.8145298281533
-20.9968535544371
-19.5625389723944
-17.6201241965585
-15.3303899530365
-12.8873585891945
-10.4936303681267
-8.33386724641466
-6.55077307191506
-5.22768403106129
-4.38083811924955
-3.96267578337898
-3.87544571182929
-3.9923794079199
-4.18220911544247
-4.33219750755424
-4.36529076052204
-4.24841280783146
-3.99095835594347
-3.6347228189093
-3.23830133045055
-2.85997608414031
-2.54309028025446
-2.30694493924123
-2.14465851263126
-2.02764905241028
-1.91489620020592
-1.76426005712917
-1.5430191264731
-1.2353628906844
-0.845587234896858
-0.396866226833395
0.0735867247728735
0.5215894522832
0.903764877769798
1.18467216823725
1.34231093144351
1.37140444031302
1.28419400348412
1.10872430264917
0.884814171225355
0.658148459617835
0.473218683722069
0.366142603128742
0.358605089642697
0.454162369445337
0.637851951942984
0.879450507819291
1.13992897256153
1.37986424362482
1.56800778429412
1.68806762534656
1.74210652821193
1.74972854166303
1.74322464034802
1.75981107241687
1.8327668094454
1.98349023772753
2.21621357808183
2.51643593177055
2.85325923419225
3.18496556867259
3.46655441885468
3.65767646076113
3.72946858780873
3.66914137059644
3.48167707461791
3.18854146207675
2.82380055602459
2.42840761865605
2.04366119826186
1.70492417708772
1.43663181833379
1.24940107608956
1.13969311279001
1.09201299817162
1.08312954518802
1.08737080298366
1.08181117387813
1.05019941308398
0.984802449072508
0.885892714460591
0.759244645890419
0.612548011691316
0.451927010569803
0.279681965689896
0.0939594553496719
-0.109570800457056
-0.334604194449368
-0.580696036583923
-0.840546967224774
-1.09903829145613
-1.33446231943402
-1.52175794535256
-1.63700772348634
-1.66214518272435
-1.58883509610067
-1.42078796477077
-1.17422330838547
-0.876634086079612
-0.564281492834417
-0.278899979273515
-0.0639531689240467
0.0394279284666351
-0.00317692751350216
-0.214844475366118
-0.602751846970784
-1.15441334087093
-1.83574922351355
-2.59209024634439
-3.35289455242521
-4.04023092489439
-4.58011223544311
-4.9148144354531
-5.01369898682354
-4.88001736548522
-4.55180931127651
-4.09620731238655
-3.59794284832919
-3.14422664719557
-2.80906889897798
-2.6402656917469
-2.65165802773354
-2.82204020825183
-3.10058971112462
-3.41730657372503
-3.6960254718079
-3.86728545839678
-3.8787050640335
-3.70133732555917
-3.33149537438578
-2.78846698327283
-2.10917916351224
-1.34115904638686
-0.535110192240246
0.261799913383618
1.0111421138183
1.68641008302578
2.27395096336817
2.77168713924885
3.18599652100532
3.52747134267485
3.80658393050619
4.03043046216289
4.20158109866237
4.31958347993819
4.38490721139429
4.40426340743611
4.39555041056536
4.39042722023936
4.43286384264992
4.5729531353195
4.85658702563827
5.31294599379363
5.94271966599757
6.71024008464742
7.54212553775682
8.33370049967933
8.96269614458565
9.30799740901491
9.26993859185156
8.78818242227922
7.85365259068501
6.51219529612398
4.85930396281511
3.02695028404868
1.16495107681662
-0.579887538125511
-2.08345567751432
-3.25990248899868
-4.07098395713122
-4.52817525344425
-4.68762347957982
-4.63900144360049
-4.49011065453133
-4.34961664867789
-4.31053559110785
-4.43698337615252
-4.75621901913139
-5.25718039008863
-5.89561362977538
-6.60471223174578
-7.30914261523048
-7.93968192562874
-8.44560959713463
-8.80252973407545
-9.01435208437105
-9.10947882237383
-9.13250598904136
-9.13363687627613
-9.15830776114299
-9.23919797455716
-9.39196784836227
-9.6150051876104
-9.89247798120896
-10.1993529328708
-10.5068823871872
-10.7873605381165
-11.0175370158258
-11.1807119898365
-11.2679951632518
-11.2793537748406
-11.2248911539572
-11.1263929181144
-11.0187228888929
-10.9503112068081
-10.9818558316159
-11.1824695726061
-11.6227877297525
-12.3649171779671
-13.4494911740969
-14.8804883782333
-16.6089277148051
-18.5171235325278
-20.4058859303454
-21.9877750066411
-22.89002820135
-22.670745219028
-20.8510063617634
-16.9636238262307
-10.616248201718
-1.56297002764095
10.2249294180248
24.5009330882713
40.7104882949581
57.9942741333798
75.2341352328385
91.1420198392014
104.384959821038
113.732137283537
118.204810249455
117.207485799724
110.61989133985
98.8340004315326
82.7279467723204
63.5778962005068
42.9183192463585
22.36905836019
3.45279059811441
-12.5719255997863
-24.8391482372823
-32.9485997596657
-36.9747802485468
-37.4134347425945
-35.0761066515655
-30.951060630284
-26.0532626662288
-21.2866454831881
-17.3385319877039
-14.6195154661269
-13.2535725446513
-13.1143351160221
-13.8959214184115
-15.2018687224656
-16.6342851015557
-17.8673832449271
-18.6944026952909
-19.0433617441102
-18.9636582729403
-18.5909050856979
-18.1005723243568
-17.6616208816755
-17.3995542330785
-17.3748905709301
-17.5789327229735
-17.9448724534097
-18.3694744809427
-18.7392507553006
-18.9551723356352
-18.9512673645774
-18.7044250960678
-18.2348402554675
-17.5983545899196
-16.8732126072873
-16.1443496416037
-15.488314164361
-14.9614162994681
-14.5928454414413
-14.3834674325815
-14.3099451888186
-14.3328731363416
-14.4069210817535
-14.4906769308861
-14.5540426302059
-14.5816723298198
-14.5719354844254
-14.5320250657826
-14.4708333598678
-14.3918138990952
-14.2880558196886
-14.1411867493332
-13.9246371161189
-13.6105307717416
-13.1783676422176
-12.6230504691374
-11.959864613022
-11.224743594212
-10.4693501255551
-9.75184583645238
-9.12534768892373
-8.62667758143904
-8.2679562848206
-8.03291193561191
-7.87867056939765
-7.742573348192
-7.55253066814121
-7.23880672940787
-6.74502564299385
-6.03655540890439
-5.10510397663008
-3.9691490978176
-2.67053508021694
-1.26808392676347
0.170653398268384
1.57830876733337
2.89614783073933
4.08109215503473
5.11054918868599
5.98453488121271
6.72487435748292
7.37161737567899
7.97717677755579
8.5990279608123
9.29201934701288
10.101376417446
11.057316724812
12.1718686405597
13.43808850355
14.8315034956123
16.3133546652986
17.8351079927503
19.3437119793515
20.7871352356568
22.119739113409
23.3069882242051
24.3288998557495
25.1815676314702
25.8761777009334
26.4352512533427
26.8863978293413
27.2545446142944
27.5542205336907
27.7837895832558
27.9233635390562
27.9374255541022
27.7820789306531
27.4155723333284
26.8097030128167
25.9592003440333
24.8864468318828
23.6398967464457
22.2860750120537
20.8966869324528
19.5336954257399
18.2358572573504
17.0099709786953
15.8290341864257
14.6379134450344
13.3654097126883
11.9401840572543
10.3072194811373
8.4414793292931
6.35612222209055
4.10382389704945
1.77112864288007
-0.53299554417831
-2.69231580953442
-4.59966624916255
-6.17189760344166
-7.36124138195259
-8.16149478418121
-8.60820028647885
-8.77283764773917
-8.75189421306405
-8.65244884067522
-8.57648927978264
-8.60646127191913
-8.7944162634074
-9.15654239176112
-9.67389092918103
-10.2989213389367
-10.9663414218979
-11.6058942786559
-12.1544585913912
-12.5651658833696
-12.8121104154658
-12.8903937940929
-12.8123820622766
-12.6018464390383
-12.2879079195346
-11.9003794589197
-11.4673427948435
-11.0148803499992
-10.568110215399
-10.1522829717314
-9.7927933573847
-9.51347439689556
-9.33328009521323
-9.26216722378024
-9.29742464106234
-9.42173534365175
-9.60388997525946
-9.80242075806289
-9.9716857953004
-10.0693083937967
-10.0635172949197
-9.93890936658254
-9.6994458402753
-9.36801024752487
-8.98248404332423
-8.58891991542993
-8.23291986798607
-7.95068743288485
-7.76137211084248
-7.66222422969267
-7.62771134310281
-7.61312524757828
-7.56239340940803
-7.41892346619927
-7.13753268929341
-6.69504677009456
-6.09716439837229
-5.37975589018728
-4.60384004778115
-3.84486143764452
-3.17825598221585
-2.66429483326011
-2.33554410317315
-2.1898314405843
-2.19043483764819
-2.2735712078319
-2.36156663735906
-2.37877060384899
-2.26667439633528
-1.99496061691694
-1.56626293710508
-1.0139606570965
-0.393955170211496
0.227343006401735
0.785949436684655
1.23140692891798
1.53405036333343
1.68755836911354
1.70706955130643
1.62401946608199
1.47927614683109
1.31609882421368
1.17404381797677
1.0844022065349
1.06728276064095
1.13018363127969
1.26784980747745
1.46331180678456
1.69011260305537
1.91573402259694
2.10607666215003
2.23056473277997
2.2671492899183
2.20630695356118
2.05318094616796
1.8273129331487
1.55990032747997
1.28904644317664
1.05389226698952
0.888708951193591
0.817950252404845
0.852965706694723
0.990675779140466
1.21414356193996
1.49474161591437
1.79553412296948
2.07552668203639
2.29448735998289
2.41802546668413
2.42249187890679
2.29907401720373
2.05630183644416
1.72018374420417
1.33144474262095
0.939851436114467
0.596283908656777
0.343872083418793
0.209943487012017
0.200562328261001
0.299014401527675
0.468782971353597
0.660563418478053
0.821939614072369
0.907738281461028
0.88894428096644
0.758419781612553
0.532408094754204
0.247710440060229
-0.0447301889014929
-0.288503881450834
-0.431069680732304
-0.432215381201707
-0.27040072552481
0.0538398638261055
0.517818200388693
1.07990479748293
1.68561622641814
2.27579515078556
2.79576066523409
3.2040398974062
3.47918568312707
3.62333447924622
3.66161869688389
3.63729001772215
3.60330518250818
3.61196220868212
3.70471746541416
3.90437825715153
4.21138699039292
4.60498160101255
5.04886270174197
5.49992828729968
5.91794458495749
6.2738934983429
6.55519418505446
6.76688751437585
6.92892364426952
7.070597606103
7.22369398638698
7.41592779708651
7.66586704234933
7.97988744508679
8.35108974592694
8.75971504087328
9.17452147043584
9.55479274878949
9.85297713331715
10.0182013004894
10.0009058694501
9.758558083241
9.26189942947811
8.50067667687815
7.48751340544649
6.25867915949626
4.87104895234183
3.39540362374663
1.90716013922711
0.476348875885706
-0.841070183608509
-2.00874713222183
-3.01131503969077
-3.85163068620177
-4.54494423801988
-5.11176303646239
-5.57136947628452
-5.93760992535776
-6.21782019412852
-6.41483006423691
-6.53115892011896
-6.5739871672755
-6.55936634618636
-6.51439543786353
-6.47662694146166
-6.49061398034763
-6.60211743934111
-6.85095386377945
-7.26373101019863
-7.84778328857625
-8.58749946559458
-9.4439467304635
-10.3582519094456
-11.2586242092537
-12.0702458984285
-12.7266147299819
-13.1804341528101
-13.4119685170853
-13.4330308094619
-13.2854830792027
-13.034213499395
-12.7557915032912
-12.5250913859614
-12.4028062791595
-12.4267261763439
-12.6088680211826
-12.9391643679226
-13.3947561381867
-13.952405720628
-14.6005428730368
-15.3472447911397
-16.2211028671723
-17.2633031831528
-18.511048589984
-19.9743127070807
-21.6095050980483
-23.2947053439846
-24.8115737363168
-25.8388420917931
-25.9614448112074
-24.6978808946356
-21.5463088242213
-16.0472125504447
-7.85739860551875
3.17305895981306
16.9319572980713
32.996665644163
50.6184184034129
68.7484210609129
86.1097942181279
101.312345680153
112.99938849334
120.008797917746
121.525775209492
117.203612595441
107.231753169489
92.3374040821897
73.7168451740226
52.9036785875291
31.5915723890345
11.4366423748645
-6.13194229462928
-20.0659093169334
-29.7950942867179
-35.2560077961831
-36.8509896776026
-35.3480610514291
-31.7403129108543
-27.0888141011449
-22.3738652326376
-18.3760705783656
-15.6020069929738
-14.2606492695354
-14.2878296527658
-15.4084535670116
-17.2211838549538
-19.2884929704516
-21.216371443027
-22.7119818033757
-23.6131372259836
-23.8894403251305
-23.6200711107655
-22.9566751916579
-22.081118013867
-21.1670686926938
-20.3519218721516
-19.7222132283908
-19.3122841120114
-19.1132473723881
-19.0877782757498
-19.1860351399517
-19.3589062566589
-19.5663509099881
-19.7803328135604
-19.9832764027916
-20.1638260375413
-20.3118888107662
-20.4146167112678
-20.4543659394562
-20.4090027879062
-20.2543783234485
-19.9684323783313
-19.5361823214539
-18.9547334028086
-18.2373640157465
-17.4156998562915
-16.5390662414499
-15.6703917181557
-14.8785847591163
-14.2280818431755
-13.7671174447495
-13.516953953305
-13.4645749463104
-13.5610071841389
-13.7264701315783
-13.8621234512411
-13.8666238884174
-13.654422589914
-13.1720999412715
-12.4092589622238
-11.4015639925032
-10.2251716580276
-8.98364494295044
-7.79001066421087
-6.74754046687568
-5.9329148416236
-5.38470582059439
-5.09882652469236
-5.031103673316
-5.10580038419447
-5.22802581946164
-5.29763478810615
-5.22240079861627
-4.92877715343141
-4.36923271063912
-3.52577957507044
-2.40979397882831
-1.05855228737744
0.470891389304244
2.10970537494509
3.78623403322036
5.43485663913807
7.00365348542672
8.45987334441377
9.79247230257984
11.0114374463716
12.1441383384285
13.2294392426466
14.3106292817477
15.4283062270979
16.6141809407015
17.8864329104094
19.2468730307525
20.6798874398592
22.1530222587001
23.6191146515282
25.0199897816696
26.2917920459678
27.3718865491745
28.2069141392412
28.7610802746755
29.0232724619928
29.0113460386418
28.7720734894242
28.3758889975405
27.9065947832475
27.4473987939277
27.065705204175
26.7996653617201
26.6494065648976
26.5750542799649
26.5023103529782
26.3347613445922
25.9706518836271
25.3209143453823
24.3250132745033
22.9616724637362
21.2526552197604
19.2591859414261
17.0720082087464
14.7971823463064
12.54034403396
10.3922107025521
8.41768623957844
6.65011137493977
5.09121125351518
3.71628029570066
2.48327379683597
1.34386972008887
0.254308759779702
-0.816042377261563
-1.8799431719021
-2.93206727447635
-3.95307041846718
-4.91674497815114
-5.79838221218874
-6.58220718997001
-7.26601318125956
-7.86186202446412
-8.3927613169455
-8.88630707950835
-9.36709424780924
-9.85001048150617
-10.336242425382
-10.8130147217672
-11.2569880760717
-11.6401927129455
-11.9366871851426
-12.1280173422199
-12.20603332706
-12.1725392845202
-12.036297493338
-11.808742499929
-11.5001116609113
-11.1174590286593
-10.6652796994656
-10.1484870968873
-9.57659034575273
-8.96741352257656
-8.34875100370294
-7.75694548634097
-7.23231394741462
-6.81233055725039
-6.52419671087494
-6.37867221574738
-6.36675088737912
-6.46004749119049
-6.61485095121516
-6.77895943337659
-6.89986531128339
-6.93270841240264
-6.84663904625186
-6.62869955307998
-6.2848731550526
-5.83841482810872
-5.325895566959
-4.79156596012872
-4.28073985778202
-3.83298197584414
-3.47597976369009
-3.22104949172549
-3.06117812790699
-2.97224144472756
-2.91752619533684
-2.85498123263332
-2.74589480767862
-2.5631705703289
-2.29726419230177
-1.95825523245994
-1.57341362899202
-1.18076078030435
-0.82019708491345
-0.524440527862672
-0.312070754740457
-0.184365839395778
-0.126530262201871
-0.112675922252518
-0.112916103709005
-0.100469589318829
-0.0568724995556972
0.0258375164730997
0.146046743923161
0.295707224867548
0.464225412847116
0.641618897393311
0.819981687521468
0.993122102849473
1.15504144474743
1.29840238371854
1.41411869180215
1.4926975841748
1.52717823829302
1.51673755909086
1.46957521407829
1.40373056033591
1.345032240828
1.32226454449607
1.36056166906946
1.47470265884251
1.66415401061063
1.91133091557908
2.18373417659339
2.43961294784704
2.63589771373996
2.73659295269736
2.71974745356642
2.58151886961802
2.33657714787625
2.01493635259992
1.65605081042537
1.30150048897051
0.987751282984043
0.74032549689593
0.570336028207604
0.473831367248453
0.433870254347158
0.424776061183594
0.417669304951664
0.386182122391801
0.311248772466974
0.184054666560174
0.0066013967874009
-0.210143113534083
-0.449985876671444
-0.696149057363524
-0.935566173008076
-1.16165618194582
-1.37479782322225
-1.58038363810363
-1.78507664740957
-1.99250295895458
-2.19988678877125
-2.39695175824273
-2.56778905984767
-2.69548710340446
-2.76839090141942
-2.78620287314543
-2.76397618443054
-2.73247272229503
-2.73426991649852
-2.81615765798707
-3.01943758957623
-3.37040659566773
-3.87337168325852
-4.50797742930641
-5.23158599893458
-5.9862239458755
-6.70853489343634
-7.34053247763086
-7.83887882782346
-8.18089757658596
-8.36639594182851
-8.41536158321061
-8.36245764267108
-8.24977534310389
-8.11944233321128
-8.00746519506355
-7.93972455628628
-7.93048742570137
-7.9832800160972
-8.09355432764203
-8.25231374339077
-8.44973842608443
-8.67786772953874
-8.93156167510096
-9.20728946620333
-9.49977509827811
-9.7971178541873
-10.0755870698678
-10.2957039751773
-10.4012978015994
-10.3228404542348
-9.98551784516383
-9.32132514437459
-8.2832478805033
-6.85865048453616
-5.07865102380105
-3.02069990280161
-0.80278526883128
1.43057407775868
3.52851728028635
5.35664468115054
6.81807203245327
7.86854307103289
8.52253388492256
8.84910936196478
8.9583921698562
8.98139043745918
9.04717937000253
9.26179037047599
9.6925958258963
10.3606690254858
11.2418799949453
12.2757529601271
13.3797170997737
14.4655752562621
15.4548921077464
16.2905138653631
16.9424131044276
17.4072799749067
17.7025182183958
17.8563419638092
17.8963489184761
17.8391709010028
17.6835435027921
17.4084317637087
16.9768070955681
16.3444670064144
15.4721469627485
14.3383315399687
12.9498350291989
11.3475082323869
9.60532689922975
7.82247095957828
6.10953090309776
4.5713316539115
3.28971738456926
2.30977124294566
1.63230037092596
1.21413776090017
0.976195813418943
0.817631000140634
0.633305553746054
0.331209249220631
-0.153291220189162
-0.848680400862504
-1.74509768392875
-2.79853105064288
-3.94013389550966
-5.08870026135033
-6.16407826502019
-7.09943440562708
-7.85068354485279
-8.40194208435125
-8.76645084583452
-8.98300354902933
-9.1084927765609
-9.20773129262539
-9.34217119277992
-9.55943163346794
-9.88554269228655
-10.3214322166506
-10.844421904553
-11.414473061629
-11.9838557123864
-12.5080870976163
-12.9556479030444
-13.3142709366416
-13.5924678285912
-13.8161987283521
-14.021861850078
-14.2477262232364
-14.5262805557078
-14.8796200764907
-15.3190347646757
-15.8486549626786
-16.4716992911014
-17.1968899740493
-18.0421930979293
-19.0333065998151
-20.1952157660111
-21.5365151790403
-23.027846249323
-24.5774858485471
-26.0086018998412
-27.0437145219923
-27.3022028081959
-26.3160211258607
-23.5669428183315
-18.5455969971376
-10.8285246347514
-0.164991535691641
13.4388015949799
29.6531601451628
47.7913458001909
66.8216829791893
85.4321729393059
102.146243959758
115.478957934573
124.114400173368
127.07897673754
123.883443895739
114.609456299474
99.9240224021299
81.0162908285583
59.4635947057445
37.045332083894
15.5318686716538
-3.52039328096625
-18.938030175399
-30.0403615356486
-36.6767934602754
-39.1905527256649
-38.3192315608849
-35.0517814882938
-30.4669560686897
-25.5790320519901
-21.213124641339
-17.9255061450969
-15.975514665095
-15.3465892376342
-15.8062681498442
-16.9898345105636
-18.4903254746304
-19.9388559337714
-21.0630918877242
-21.7172681748367
-21.8831917970498
-21.6470386337427
-21.1605082085969
-20.5965165735691
-20.1090227184278
-19.8041900126617
-19.7266044028908
-19.8605781228735
-20.1434768828571
-20.4860974657907
-20.7946207459994
-20.9894386342674
-21.0177852813436
-20.8590394596376
-20.523283756969
-20.0448527888462
-19.4730597898339
-18.8621638514183
-18.2621726825171
-17.7115345194772
-17.2323428737265
-16.8284089354684
-16.4863742318614
-16.1798079733418
-15.8758575486346
-15.543497517243
-15.1618779593255
-14.7269198199493
-14.2543571682221
-13.7780012408588
-13.3430473857737
-12.9955311735316
-12.770207215513
-12.6798021846472
-12.7085220447955
-12.8118211811639
-12.9229581739747
-12.9651550068111
-12.8667126791932
-12.5756274051445
-12.0703254877181
-11.3640683462754
-10.5021087136122
-9.5523851275211
-8.59197651392384
-7.69235515826808
-6.9065201292723
-6.26042839212141
-5.75000934249628
-5.34378071805007
-4.98999424916565
-4.62654182629203
-4.19162032772631
-3.63332830925828
-2.91681263216742
-2.02814337868799
-0.974652305701142
0.218037061326811
1.51164384046279
2.86254343843999
4.22952256153442
5.58062084249273
6.89779005477427
8.17844162922388
9.43354099818864
10.6826531402288
11.9470789121837
13.2427406839516
14.5746021260234
15.934061103248
17.2999951306771
18.6431593823347
19.932714992991
21.1430761715826
22.2591926469866
23.2788577317315
24.2115103914761
25.0740128632818
25.8847220500237
26.6575802192065
27.3978162633615
28.1002369430605
28.750215026358
29.3266436439009
29.8055979495933
30.1633881522855
30.3780992148777
30.4294287180176
30.2973908130267
29.9609771183954
29.3979661260487
28.586710809484
27.510029278543
26.1605121428459
24.5459148850804
22.6930405701166
20.6487292386339
18.4771970366583
16.2538278185074
14.0563698262672
11.955105584131
10.003803002695
8.23309262389903
6.64742765488061
5.22611234811896
3.92818538586279
2.70034257204031
1.48665050151065
0.23856622533547
-1.07626340445323
-2.46780171830987
-3.92106841042323
-5.3977709182571
-6.8420106273517
-8.1892406934434
-9.37700124452508
-10.3555207922232
-11.0961875489981
-11.5962340847952
-11.8787125821182
-11.9878208689156
-11.980639845982
-11.9171038711073
-11.850341617909
-11.8193091082425
-11.8449540409837
-11.9302029734485
-12.0631279655079
-12.2219925470432
-12.3806665255062
-12.5131531236963
-12.5965565213692
-12.6124990489398
-12.5475265004871
-12.3932433904932
-12.1467580837314
-11.8115943121851
-11.3987420891828
-10.9271948860779
-10.4232983460171
-9.91853832441087
-9.44590823739425
-9.03551599185494
-8.71041157821408
-8.48360716419784
-8.35692056493298
-8.32172775412723
-8.36116606623376
-8.45298845595963
-8.57224846930496
-8.69328363991599
-8.79092644610216
-8.84130318738834
-8.82279327788868
-8.71761764841115
-8.51414153031839
-8.2094716964285
-7.81151999026042
-7.3395868474702
-6.82277915352557
-6.29615981258929
-5.79524482607594
-5.35006487032811
-4.98026600309804
-4.69252300088442
-4.48092078149154
-4.3301130086078
-4.22026438371569
-4.13228623470914
-4.05184528193963
-3.97106906663106
-3.8876389471635
-3.80180085685116
-3.71246765441305
-3.6138408178349
-3.49378286990914
-3.33460985942101
-3.11623728155743
-2.82093136749569
-2.4384794805475
-1.97049323969506
-1.4327809385744
-0.855170415228908
-0.278690510362536
0.249496765426676
0.682657500244787
0.981563996529138
1.12102242015069
1.09480320096928
0.918058060213231
0.626568264870289
0.272581430587378
-0.082449342510917
-0.377276328348288
-0.560889496725505
-0.601283419021015
-0.491092139959925
-0.248704319102972
0.0856360287430399
0.458111937377895
0.812291292792675
1.10033168247132
1.29187367086069
1.37860339933924
1.37355952251352
1.30561976461434
1.21084684073219
1.12314156499903
1.06671704765367
1.05225562852721
1.07744156330391
1.13123663805159
1.20018678006145
1.27453671470216
1.35212515259303
1.43884983630711
1.5456539324522
1.68311883347644
1.85550372754687
2.05623330872703
2.26638081816029
2.45679353535597
2.59345550839152
2.64479441208242
2.58915523470318
2.42067868281391
2.15227602251841
1.81510707772674
1.45472294740319
1.12464124964222
0.878476676801812
0.761849255088559
0.805204941528827
1.01849850208531
1.38847115658205
1.87901715461727
2.43484122297881
2.98822033482697
3.46819252623942
3.81096522275078
3.96989731536764
3.92322656210164
3.6779196366622
3.2686544640732
2.75190904675841
2.19620893797622
1.67048995121699
1.23299718942305
0.92301039255786
0.756972907958601
0.729495084723208
0.818509872416048
0.992910246919833
1.22054653626272
1.47460271723488
1.73702149890822
1.9985833198877
2.25617707196981
2.50847537768797
2.75149629129692
2.97538592595422
3.16330157587958
3.29268477559738
3.33865657889542
3.27885442501659
3.0987962965706
2.79677872415925
2.38734548337724
1.90247818354243
1.38987198856829
0.908009924150651
0.518266413278506
0.274926090042197
0.214683107618995
0.347698275224391
0.652421023748921
1.07597047762506
1.54088965788141
1.95769369777921
2.24114744236189
2.32703903983764
2.18574068591211
1.82928307163708
1.30998728891833
0.710607060603482
0.127953775110893
-0.346431066408473
-0.644262492308353
-0.733200652088319
-0.621592880093432
-0.354542799263081
-0.0025997180111538
0.354040488134166
0.642131018822191
0.809205838660808
0.832027825694553
0.718463211336944
0.503104026408548
0.238187673033444
-0.0179267616467526
-0.212330450425378
-0.307134264252064
-0.285623594403153
-0.154322337215781
0.05902509558727
0.31098416295685
0.550478773395104
0.728061815962674
0.804931359118649
0.760189484007032
0.595020501135014
0.332892807663713
0.015552153251949
-0.30461728489446
-0.574499217148376
-0.750486674125222
-0.806953639742577
-0.741158509260673
-0.573522800142415
-0.343235562513287
-0.100155155923272
0.105242456151895
0.231773173106319
0.255362712655609
0.173387837415646
0.00495696568929835
-0.212635974377328
-0.430405959373539
-0.59587444166114
-0.661639581684342
-0.593108433387973
-0.374399243678551
-0.0116576395840511
0.466740867516127
1.01337174335857
1.56824466012367
2.06802524678838
2.45684802055809
2.69700987309049
2.77747753603731
2.71818606284682
2.56866646680936
2.40059533599111
2.29521524884377
2.32790293902564
2.55308234608332
2.99287783591949
3.63224064341636
4.42186034773309
5.2883259367542
6.1492090296907
6.92949827841157
7.5754759703119
8.0628043654506
8.39710235813118
8.60722679318046
8.73329608857094
8.81271818383518
8.86780694526134
8.89795532375444
8.87800900382438
8.76286114537002
8.49682347315167
8.02538493695917
7.30671923687356
6.32070096651501
5.07401800233967
3.60092832151147
1.96003526293397
0.227987835783625
-1.50877067089541
-3.16309691102851
-4.65609293154795
-5.92502915886
-6.92945764513278
-7.65482371691412
-8.11306566057835
-8.34001821257038
-8.38989973953082
-8.32767765867499
-8.22052789368051
-8.12978635108438
-8.10464868884218
-8.17842782187887
-8.3675524878857
-8.67287759660124
-9.08246842345604
-9.57493206179078
-10.1225971648511
-10.6942636419703
-11.2576626286181
-11.7819947081257
-12.2408455785894
-12.6154376050358
-12.8977126584566
-13.0923752239891
-13.2169559005807
-13.2992819131307
-13.3724083761633
-13.4678721165909
-13.6087989366037
-13.8046648727991
-14.0492402528406
-14.3224692027501
-14.5959712264625
-14.8408218561299
-15.0356061108249
-15.1726621953793
-15.2609766537501
-15.3251863192923
-15.4012673276186
-15.5303814522495
-15.7527124614349
-16.1028360509191
-16.6073121690217
-17.2840399676497
-18.141850625855
-19.1782055158145
-20.372980395794
-21.6772304356362
-22.9974158875543
-24.177507144333
-24.9832382949987
-25.0940560301144
-24.1085816487393
-21.5683714473973
-17.0023421480924
-9.99060956789401
-0.24214771982004
12.3236475370264
27.5047987136611
44.7688335736506
63.2429009761288
81.7517115869594
98.906429242203
113.239161708403
123.368842099523
128.17679302603
126.965823213977
119.576586788767
106.439635048721
88.550644985457
67.368307840727
44.6471822924144
22.2290379402971
1.82361721149575
-15.1882026514227
-27.8996527439061
-35.9514754896474
-39.5256339853072
-39.264907143178
-36.135856558155
-31.2608449376296
-25.7479138415815
-20.545119909798
-16.3391933631864
-13.5087674179674
-12.1320064978229
-12.0392669804041
-12.8950330372333
-14.2906322497559
-15.8301921805985
-17.1962784648989
-18.1875020418946
-18.7267502401606
-18.8443270782143
-18.6442384968783
-18.2636264488796
-17.8349132063795
-17.4579535904731
-17.186097174776
-17.0263664915869
-16.9507666019655
-16.9136818343439
-16.8697177239507
-16.7871908470411
-16.6544055777089
-16.4782950500678
-16.2772645870207
-16.0715644145756
-15.8748775859622
-15.6900119442596
-15.5099370206996
-15.3234529074831
-15.1231397969398
-14.9124252035999
-14.708867224525
-14.541993858678
-14.4458590461488
-14.4482923201086
-14.5600491125138
-14.7673156939814
-15.0301976634368
-15.2881688374662
-15.4714770020612
-15.5157879629433
-15.376403288247
-15.0384718455389
-14.5206793116659
-13.8716075086711
-13.1598017026963
-12.4600553168891
-11.8391483692296
-11.3441301414606
-10.9953464968935
-10.7850984431134
-10.68147736225
-10.6359000206183
-10.5923647658618
-10.4964905162056
-10.3028496275717
-9.97974953098967
-9.51124447499728
-8.89662691579729
-8.14791600013512
-7.28596931590371
-6.33587216656583
-5.32226982321583
-4.26531700886987
-3.17788772287713
-2.0645558035142
-0.922580352131769
0.255274668696853
1.47670658597911
2.74560741770274
4.05868716649629
5.40395129862686
6.76155213276677
8.10691409860778
9.41541474668723
10.6674714145695
11.8527665359375
12.9725723893727
14.0396307589444
15.0756489345731
16.1070131339458
17.1596541766888
18.2540683560072
19.401328664184
20.6006134156891
21.8384475670471
23.0895880844942
24.3193253346945
25.4868976799839
26.5496729066755
27.4676876533172
28.2080399276776
28.7485338029506
29.0799488822939
29.2064218026972
29.1437168225527
28.9155946939995
28.5489608450472
28.0688393928848
27.4943388920553
26.8365703572866
26.0989697598585
25.2797945131985
24.37590952597
23.3865675649725
22.3158729593526
21.1730286804004
19.9701953083213
18.7186136507368
17.4242932187277
16.0848219615541
14.6886050789977
13.2171497193153
11.6500831221222
9.97171403068554
8.1774020378615
6.27796710246022
4.3008709582059
2.28778422886095
0.289147724928664
-1.64286005908896
-3.46116483848187
-5.12882326824109
-6.62123533247387
-7.92542560638597
-9.03713647215257
-9.95705394531785
-10.6876222942121
-11.2315814445944
-11.592705374788
-11.7784462745126
-11.8035333090606
-11.6932190303234
-11.4848929638394
-11.2271604909548
-10.9760962213219
-10.789060455003
-10.7170551657752
-10.7969734051331
-11.045202248418
-11.4538694364481
-11.9906159386804
-12.6021981388861
-13.2215613392877
-13.7773828331403
-14.2045694436592
-14.4539199579286
-14.4992115691445
-14.3403734195736
-14.0021258770465
-13.5283638670781
-12.9734524156604
-12.3922648571252
-11.8310471114739
-11.3209476642936
-10.8753566425522
-10.4912243300828
-10.1535441100408
-9.84146499453159
-9.53424943638829
-9.21557603760733
-8.87539910159239
-8.5094736202856
-8.117429923005
-7.70067324696507
-7.26126112572199
-6.8023310614019
-6.32983722067814
-5.85462531437168
-5.39352556137869
-4.96833855571325
-4.60229234411534
-4.31452944306865
-4.11408790851015
-3.9953217103177
-3.93654351445882
-3.90286445652371
-3.85297559283213
-3.74834955391988
-3.56245764941733
-3.287408961392
-2.9360197042351
-2.53855582782586
-2.13489517971279
-1.76417185475362
-1.45469345135625
-1.21684272532164
-1.04081910081827
-0.899708977899835
-0.7569100241946
-0.575801007371037
-0.329054528366503
-0.00523794661602994
0.388784552225776
0.82994232287031
1.28467730561781
1.71662080381911
2.09427639854643
2.39700563077371
2.61824157272663
2.76563277221231
2.85851673231033
2.92358046705188
2.98973361919165
3.08314156237404
3.22314199090064
3.41950305042088
3.67124256918066
3.96703499073628
4.28706715762185
4.606041350455
4.89686138072607
5.13440723089912
5.29876170061164
5.37734906350677
5.36569195370968
5.26684024168694
5.08987237362344
4.84809242161997
4.55754975879105
4.23627078880073
3.90418550959313
3.58330614601763
3.29744861529496
3.07081711877986
2.92513271053841
2.87558403161597
2.92650976896242
3.06814229760692
3.27575160714214
3.51205670402146
3.73291482503448
3.89530298476597
3.9657921196226
3.92736913267208
3.78273908540048
3.55309575651942
3.27255042096334
2.97960260038605
2.70786207339464
2.4784373697046
2.29593103800527
2.1489724362638
2.01497825523006
1.8677211214706
1.68561351688922
1.45853844733955
1.19155662951993
0.904708032790129
0.629128698460515
0.400548643341013
0.2517319012535
0.205499148668738
0.269692578536129
0.434937069228929
0.6754762120457
0.952838387989014
1.22167965956889
1.4368665261001
1.56068858686464
1.56902490994311
1.4553530727456
1.23173164404703
0.926338801761145
0.577792552937884
0.22721193950609
-0.0903720691170447
-0.353291624811103
-0.557348286851871
-0.715531186868346
-0.8531903914212
-0.999744732809191
-1.17906316958409
-1.40120107710128
-1.65797916734347
-1.92395294414623
-2.16285706290433
-2.33802440100222
-2.42404116503414
-2.41639378322188
-2.33627109659097
-2.22891613027822
-2.15563521595103
-2.18127948012931
-2.36022661659038
-2.72427144091283
-3.27529451371638
-3.9843019005397
-4.79680350623992
-5.64298801418899
-6.45015826831383
-7.1546294152947
-7.71074966849467
-8.09566315390468
-8.30956541713674
-8.37217760722863
-8.31676297828745
-8.18316515228575
-8.01114658601629
-7.83492112133423
-7.67938414188942
-7.5582586087329
-7.47420742342487
-7.42084323742999
-7.38640054380644
-7.35856497773834
-7.329608581874
-7.30067251675933
-7.28393191198091
-7.30160865510008
-7.38140906509513
-7.54886056858261
-7.81798344996561
-8.18247202734131
-8.60981093300091
-9.04037134738584
-9.39255184629039
-9.57366386897178
-9.49485425932836
-9.08727710966191
-8.31626437881462
-7.19052529925577
-5.76435704240533
-4.13223212151448
-2.41660628079644
-0.751032675901831
0.738566711353039
1.95143346100662
2.82561749017958
3.34578314427223
3.5441761840267
3.49474666212982
3.30134577634263
3.08169625920328
2.94942956901935
2.99683653544288
3.28101849645483
3.81577508375047
4.57077950499159
5.4784140348296
6.44722720924211
7.37960230057536
8.19022550827025
8.82161121605492
9.25344664139492
9.50381734706078
9.62220160760575
9.67603782810925
9.73418063984194
9.85125818756902
10.0566248564594
10.3503453653977
10.7067840603087
11.0844116528362
11.4389086851153
11.7359414230455
11.9602728200565
12.1190301627513
12.2386266475727
12.3565444901649
12.5104661715896
12.727768842037
13.0180835262984
13.3706128034898
13.75652481764
14.1353984021406
14.4637403500564
14.7032494884548
14.8267967031859
14.8208848637024
14.6843906201712
14.4243797382637
14.0504831804483
13.5695787762034
12.9823225139042
12.2825038646909
11.4594240737957
10.5027052796781
9.40830695435787
8.18418416223505
6.85403613714918
5.4579610476563
4.04948375150443
2.68923018239531
1.43631706160361
0.33912901854816
-0.57258801422093
-1.29256774546369
-1.83865665346953
-2.24901294997034
-2.57465704289301
-2.87001039281284
-3.18351814204719
-3.55038050614647
-3.98882672946408
-4.50041255239387
-5.07377664719863
-5.690453004471
-6.3309419800595
-6.9793913896925
-7.62585879215859
-8.26599850010601
-8.89885024064619
-9.52393388307974
-10.1389230787735
-10.7387893523753
-11.3166407801808
-11.8657819023529
-12.382049139868
-12.8653921655576
-13.3199918617966
-13.7527953713269
-14.1709768881117
-14.5792580820067
-14.9780834315411
-15.3633220075145
-15.727584332452
-16.0626266777612
-16.3619067519237
-16.6223198720246
-16.84450958639
-17.0317841788398
-17.1883414785351
-17.3179400880831
-17.4241511890639
-17.512816045649
-17.5964238712393
-17.6990628709512
-17.8597131500531
-18.1312616982894
-18.5729462866131
-19.2350359650235
-20.1363056851608
-21.2369670890381
-22.411760994283
-23.4294317253157
-23.9453498020129
-23.5133001537305
-21.6202710377614
-17.7445813273758
-11.4332761150905
-2.39008347993033
9.43875946518735
23.7958938452563
40.0765109645971
57.3365038839271
74.351610347036
89.7262347788116
102.041900281255
110.02723108903
112.725664051968
109.63509771404
100.7961431872
86.8124316097622
68.7965650329725
48.247052094991
26.8728277811093
6.39062396087624
-11.6751031196719
-26.1606094978263
-36.3761444922851
-42.149969106956
-43.8004805448118
-42.0452222007297
-37.8648764343762
-32.3460331031182
-26.527842255383
-21.2747031444272
-17.1907980551975
-14.5839675730938
-13.4777751663771
-13.6631394051033
-14.7757588276627
-16.3833178367771
-18.0671677370926
-19.4863439716935
-20.4165649859933
-20.7622378846382
-20.5444613129687
-19.8717377675963
-18.9020631361719
-17.8051019264325
-16.7315087226544
-15.793655585361
-15.058793313463
-14.5527607829852
-14.2703734781966
-14.1879137944064
-14.2737192915454
-14.4944074966949
-14.8162500531968
-15.2030087345047
-15.6126654359596
-15.9956496292147
-16.296423526689
-16.4589355743326
-16.434970924629
-16.1932980910686
-15.7270783406778
-15.0573726353506
-14.2315961385661
-13.3170865764874
-12.3911563666369
-11.5297455946807
-10.7969141948781
-10.2369501627449
-9.87004547194031
-9.69160496426917
-9.67457891495815
-9.77390016209155
-9.93215590421715
-10.0858918271768
-10.1722288071645
-10.1355945861106
-9.93426007721633
-9.54607761309778
-8.97250646773591
-8.23987639944491
-7.39703339922888
-6.50907021077389
-5.64766511039652
-4.87942006925407
-4.25424298482624
-3.79603925243851
-3.49766315391903
-3.32128010336449
-3.20419705363704
-3.06910220342165
-2.83678803176724
-2.43900692686917
-1.82919278441353
-0.98930867598427
0.0681144451947686
1.30280339417542
2.65371454177925
4.04888137826101
5.41657428195017
6.69615056603562
7.84709708740428
8.85502694732658
9.73376098869576
10.5230971524823
11.282436486173
12.0810548966742
12.9864018064636
14.0522507807811
15.3086960219158
16.7557923969918
18.362063331855
20.0682368675604
21.7955893550851
23.4573981473673
24.9714336873422
26.2712877419835
27.3146564421467
28.0873775526873
28.6028815663006
28.8975492827161
29.0231005171624
29.0374714788961
28.9956645196125
28.9418397503723
28.9035665852607
28.8887627286896
28.8854819564048
28.8643913706791
28.7834965320509
28.5944199326482
28.2493275102674
27.7074723083116
26.9403441867324
25.9346274061325
24.6925757796741
23.2299532397313
21.5722296512319
19.7501122449816
17.7955999423118
15.7395142113374
13.6109357581672
11.4383132070184
9.25141883284684
7.08300817697407
4.96911440559904
2.94736541642498
1.05341034890786
-0.683748457012682
-2.24624469194427
-3.63031037320508
-4.84672761324256
-5.91847748554866
-6.87608655662095
-7.75180643231204
-8.5740341467247
-9.36321436770699
-10.1299341437593
-10.8752266631809
-11.59249057202
-12.2701109305282
-12.8939234361594
-13.449033183849
-13.9209999443493
-14.2968042505523
-14.5661300152855
-14.7232802063665
-14.7695728360398
-14.715553257606
-14.5820491295023
-14.3991654926937
-14.2028047637538
-14.0290664744546
-13.9076717583418
-13.8560696880414
-13.875895175371
-13.9529058779729
-14.0605702429782
-14.1664086194695
-14.2393585970347
-14.2561305872521
-14.2048548522065
-14.0851953458993
-13.9052328730902
-13.6764264892314
-13.4085147229
-13.1061390239645
-12.768297734983
-12.3907068475297
-11.9701072838694
-11.5088652255568
-11.0180868314572
-10.5179410341307
-10.0347847793368
-9.59571037588339
-9.22195337098798
-8.92296394327331
-8.69276756664969
-8.50961108938268
-8.33903047075977
-8.13965489582566
-7.87050045955289
-7.4983129293375
-7.00366965688001
-6.38492340834872
-5.65951034428295
-4.86252956028827
-4.04278696798018
-3.25671110620936
-2.56075786974909
-2.00317005707055
-1.6162260735258
-1.41030534955156
-1.37107950660315
-1.46079353573258
-1.6239055826788
-1.79641309283578
-1.91723445893004
-1.93932684248966
-1.83805567763361
-1.61481230390087
-1.2949361756391
-0.920382394643678
-0.538908962965979
-0.192459023740209
0.0923867107146173
0.309579503721129
0.473261634966268
0.612229822694175
0.760829783134576
0.94873188304592
1.19217774168422
1.48875724896594
1.8167759493157
2.13911600837012
2.41049727849804
2.58643500907922
2.63204872870827
2.52913892144769
2.28045457142857
1.91064387175978
1.46387718378493
0.998503531194853
0.57937452735996
0.26870368104578
0.11656678590353
0.152372546237381
0.378755615637402
0.769244423826307
1.27063440263318
1.81023993720049
2.30721434031014
2.68613867938796
2.89036598231411
2.89241313563182
2.69914206086558
2.35050854571846
1.91204623024232
1.46264163234787
1.08017723279755
0.828006531840855
0.744892778201868
0.840112512038483
1.09417889147606
1.46442791965842
1.89383835716224
2.32109395931003
2.6900430786133
2.9572156429814
3.09669510289867
3.1022015138232
2.98659732276582
2.77917266361401
2.52109083548802
2.25940229020363
2.04015838254626
1.90138215866607
1.86689784957768
1.94214205055776
2.11294491333913
2.34782186649245
2.60361415178713
2.83352948904083
2.9959923658086
3.06242835072051
3.02229437895393
2.88430080564981
2.67368471011004
2.4263319937226
2.1812458962905
1.97313649286311
1.82670819320585
1.7536430296369
1.7525154606171
1.81116341363471
1.91057135548802
2.02918528289901
2.14674974760963
2.24711344696638
2.31983489285239
2.36070069779492
2.37138473649984
2.35844955209014
2.33180576628395
2.30269915761262
2.28135116668465
2.27453244101378
2.28352921868526
2.3030620973785
2.32164369936219
2.32358470927291
2.29242990330229
2.21515335536423
2.08612130707104
1.90976990695318
1.7011908679779
1.48431560502013
1.28799413082728
1.14079614738875
1.06566044093623
1.07550687067824
1.17062977457542
1.33822955900834
1.55396991111142
1.78511112877966
1.99463443374302
2.14581611043397
2.20684034038
2.15513939330407
1.98113880764161
1.69096092727731
1.30748570559959
0.869118635998878
0.425798719208788
0.0322467466104657
-0.260858407738866
-0.416359398252478
-0.418814888495285
-0.279373586928367
-0.0357517362517201
0.253290201657073
0.518303168035671
0.692426195822283
0.724814046221551
0.591237293098161
0.299410631272068
-0.112234562805918
-0.582125797775726
-1.03782870934838
-1.41036732287862
-1.64756099980127
-1.72369953308193
-1.64379432089724
-1.44186159332697
-1.17390144847116
-0.907170664080589
-0.707856402820744
-0.629320667397764
-0.702784747095205
-0.931793475295806
-1.29117139312236
-1.7305472585395
-2.18192417617359
-2.57022916593997
-2.82531407797136
-2.89355513813183
-2.74709657002038
-2.38899296803334
-1.85307244878407
-1.19823201029413
-0.497949597439117
0.173169685475479
0.75325931371827
1.20468989322228
1.52080944270715
1.72648267623494
1.87229032554473
2.02360257600686
2.24681883616053
2.59561694455699
3.0999656669914
3.7599764070958
4.54559514756974
5.40193318672278
6.25897396815307
7.04367300983592
7.69218153543466
8.16005775966901
8.42879243845298
8.50764499535268
8.43054769668593
8.24859769334754
8.01935134670914
7.79469683629686
7.60943220889793
7.47272791671635
7.36432839696446
7.23662055444825
7.02263272158199
6.64879873096051
6.05019054952097
5.1851829634208
4.04640515747982
2.66545934872013
1.11015812664216
-0.525326812942353
-2.13540406669509
-3.61993471737683
-4.89949305088792
-5.9259567838385
-6.68659183723296
-7.20141615216378
-7.51519186785035
-7.68648431152244
-7.77657410948252
-7.84058139227474
-7.92215737119994
-8.05187661814337
-8.24841809932788
-8.52105670216925
-8.87201679406121
-9.29777176354994
-9.78915215745755
-10.3308320616272
-10.9011362658485
-11.4730325476162
-12.0167051092697
-12.5034515045062
-12.9100695964632
-13.2226231816174
-13.4385915786925
-13.5668639872837
-13.6256557156269
-13.6389748392717
-13.6325696500172
-13.6302625107467
-13.6512766544379
-13.7087398300606
-13.8091846059066
-13.9526976078903
-14.1334395764783
-14.3404966389971
-14.5592864976455
-14.7738733975263
-14.9704365503314
-15.1417771186027
-15.2922290664178
-15.4418190896931
-15.6281757839371
-15.9046535242942
-16.3334712617986
-16.9733462564167
-17.8620389143462
-18.9952950882032
-20.3047460042024
-21.6382725838398
-22.7470189810573
-23.2834822988858
-22.8147176026465
-20.8534905666755
-16.9080698805093
-10.5483300066726
-1.48223271192464
10.366847664961
24.7942931487087
41.2733740268155
58.9515555767799
76.6922286901574
93.1637064931645
106.969373383282
116.804784121032
121.620952401179
120.769580274237
114.106598476718
102.035362022007
85.4795251293925
65.7865518572847
44.5740325837878
23.540388472967
4.26739358138828
-11.9568534554421
-24.2695061738965
-32.3018282283827
-36.1784309029853
-36.4510781079226
-33.9811063749828
-29.7915101011459
-24.9128730490962
-20.2463261829054
-16.4620606785417
-13.94469297956
-12.7883789800252
-12.8364852989538
-13.7541362882885
-15.1179741665783
-16.5064166591595
-17.5754834282268
-18.1093492945935
-18.0402944290328
-17.4386098256625
-16.4782352139508
-15.3875906327017
-14.3966713650799
-13.6908806836574
-13.3795714874521
-13.4835030713793
-13.9412455562923
-14.6308530404579
-15.4005799524767
-16.1014259328104
-16.6148831963153
-16.8711053015832
-16.8552646949485
-16.6024898032348
-16.1839225866584
-15.6877603107469
-15.1995273328923
-14.785367116176
-14.4810969850687
-14.2884235968503
-14.1783427125713
-14.1005388817664
-13.996681111068
-13.8149493950337
-13.5229681586566
-13.1165949840296
-12.6227172626504
-12.095289184988
-11.6051558791498
-11.2255312871364
-11.0160365283506
-11.0086926463574
-11.1990175785194
-11.5443898245582
-11.9702938604999
-12.3833040438127
-12.6881243403655
-12.8050727635652
-12.6843220112872
-12.3139966997818
-11.7206674390618
-10.9624909133776
-10.1167885557084
-9.26487301576703
-8.47723044982267
-7.80176521293216
-7.25690819083814
-6.83027388944463
-6.48251232999197
-6.1552377142794
-5.78149551301975
-5.29710727053561
-4.65130287878681
-3.81521680276238
-2.78704912459342
-1.59300327538561
-0.283573688839754
1.07459172867813
2.41022698385783
3.66054359908278
4.78345267564544
5.76633024093753
6.62919280910005
7.42119597281806
8.2108192941465
9.07161009217111
10.0665188033293
11.234322484989
12.581229397422
14.0795556988635
15.6736659726063
17.2916219906631
18.8596552055368
20.3160134443939
21.6210560721283
22.7615587944499
23.7487103424607
24.6108130216689
25.3828446458557
26.0955497301541
26.766550210205
27.3952361443839
27.9621736770223
28.4327396006478
28.7638907310119
28.9125240613627
28.8437866150433
28.5378760900324
27.9942290889544
27.2324344006391
26.2896853996509
25.2150809527662
24.0615841472433
22.8769103927048
21.6949562423876
20.5294845562432
19.3715495403839
18.1915397850832
16.9458057199897
15.5867987169915
14.0747386184085
12.3883081661746
10.5319325748535
8.53787899508858
6.46256719882559
4.37783485890226
2.35909325228545
0.473021043910561
-1.23251458192176
-2.73424895270115
-4.0340737267949
-5.1546813358708
-6.13172526372557
-7.00456719458593
-7.80775393973334
-8.56491517004436
-9.28598705586727
-9.96780206880486
-10.5973752994658
-11.1568069145323
-11.6286350779688
-12.0006390825036
-12.2693830057026
-12.4420890344046
-12.5366723691225
-12.5799564226775
-12.6042608022664
-12.6427593853674
-12.7242467570726
-12.8681763454617
-13.0809476160973
-13.3543257855409
-13.6665282445727
-13.9859468853237
-14.2768266570515
-14.5056782307038
-14.6469522925822
-14.6866558708725
-14.6231343443695
-14.4650313923319
-14.2272358789435
-13.9261763689983
-13.5759483215489
-13.1864104080884
-12.7636761027018
-12.3125882856939
-11.8400758910196
-11.3579801139273
-10.8841032902311
-10.4408160073596
-10.0513602119366
-9.73474414173025
-9.50059899700218
-9.34542054107651
-9.25125707904911
-9.18726517343761
-9.1138474644592
-8.98852175861484
-8.77238356847666
-8.43604307985374
-7.96416792896122
-7.35811380367502
-6.63644822091845
-5.83339673842154
-4.99536950566625
-4.17582296219348
-3.42885386721035
-2.80214908042153
-2.33018990168136
-2.02882817131146
-1.89237499421019
-1.89406572595054
-1.99017226182215
-2.12723249961666
-2.25106766046856
-2.31571232426256
-2.29029406465579
-2.1623469332003
-1.93693525751772
-1.63205949374514
-1.2717928164881
-0.879158220091945
-0.470726952940031
-0.054309476129859
0.36988798835801
0.80534187318588
1.25404254311749
1.71191401365021
2.16639664348392
2.59703277557151
2.97893566952191
3.2881429127986
3.50731903837761
3.63021668883778
3.66371110411531
3.62692977501719
3.54777323614356
3.45773669331461
3.38624657679134
3.35568769342139
3.37799028249825
3.45321157976268
3.57012791157059
3.7085483802552
3.84289583716751
3.94653869994684
3.99633472767054
3.97681749502636
3.88341664160262
3.72410236064462
3.51895572629254
3.29744348747941
3.09361380992943
2.93994526560869
2.86102945043787
2.86848551031395
2.958374722234
3.11188483321886
3.29928689035722
3.486331942253
3.64159365234274
3.74298227672507
3.78185590780451
3.76379205166166
3.70597674379496
3.632059029892
3.56594679983148
3.52621030553221
3.52247446263981
3.55452816110854
3.61407226898524
3.68831521163725
3.76420679438148
3.83207146218733
3.88772775059759
3.93272222364097
3.97287476324752
4.01575565450418
4.06789256886026
4.13243106594568
4.20772176981006
4.28699926547967
4.35906232329183
4.40972454114718
4.42377779980353
4.38724674738216
4.28974280180648
4.12670382075004
3.90122967353914
3.62514114706944
3.31887186952937
3.00991112091465
2.72976526762911
2.50975136769381
2.37628059385776
2.34651496364783
2.42529698326716
2.60402935117148
2.86177019634439
3.1683225887106
3.48867585974342
3.78791865148017
4.03574399183634
4.20987867258192
4.29809895405694
4.29881959335914
4.22046079084994
4.07986431801292
3.89997498310897
3.70691105619151
3.52651510758955
3.3805674344821
3.28305024639687
3.23708935857804
3.23334284097461
3.25053240182288
3.25846802352677
3.22334635915727
3.11445637401298
2.91090779983548
2.6068029862227
2.21350871497058
1.7583255931003
1.27973625010007
0.820287131352252
0.418760593538983
0.103441212008478
-0.112069100601276
-0.229764004684984
-0.265032144757931
-0.242262523352779
-0.189596590549749
-0.134152725797877
-0.0986492514560783
-0.099742425836453
-0.147805226747258
-0.247501915732816
-0.398465758639317
-0.595638418076835
-0.829244434276433
-1.08476413524943
-1.34346474352875
-1.58396732182716
-1.78499443640494
-1.92898680870381
-2.00587152983807
-2.01606502237224
-1.97187920455675
-1.89684414013318
-1.82295001758337
-1.78628796427934
-1.82189284758444
-1.95868859323224
-2.21532055543027
-2.59741226869973
-3.09651306838705
-3.69079107174454
-4.34739595853363
-5.0263288234638
-5.68554082650745
-6.28678369840348
-6.80145939480195
-7.21544719820045
-7.5317640026164
-7.77007660354248
-7.96260288660265
-8.14675800776322
-8.35583384577986
-8.60976536223438
-8.90835168825052
-9.22897756138064
-9.5299185170317
-9.75891660073096
-9.86525386222937
-9.81246027584916
-9.58842675385826
-9.21021090036225
-8.72212025179142
-8.18738994678538
-7.67545090888251
-7.24792808533819
-6.94678888403251
-6.78740940655055
-6.75794634615257
-6.82470915940327
-6.94170929181993
-7.06163392220373
-7.14536803147311
-7.16784020244943
-7.11914565372419
-7.00123185177107
-6.82154419415816
-6.58565700112535
-6.29096405243539
-5.92304918917413
-5.45559473544199
-4.85384552047519
-4.08092446042232
-3.1058059281431
-1.9115224957666
-0.502176005882648
1.09250735239699
2.81603574389279
4.58796161395262
6.3106489328119
7.87938744838794
9.19461252422838
10.1744629971858
10.7656341350878
10.9505834496432
10.7496748414825
10.217739754224
9.43561449391508
8.49822362861099
7.50145612766003
6.53023500244614
5.64976524957175
4.90107587597249
4.3009007554303
3.84497864793251
3.51326295562298
3.27545760567728
3.0957059276814
2.93596529860412
2.75832198141978
2.5269669989413
2.21059870184483
1.78563804423126
1.23999974274581
0.576523487313494
-0.185190287928712
-1.00969373142602
-1.84992573934261
-2.65443467780767
-3.37631621941886
-3.98193099813851
-4.45732374738992
-4.81072022186699
-5.07041878473358
-5.27855181653885
-5.48222947754495
-5.7241945776363
-6.03514489649535
-6.4293326844449
-6.90411560417083
-7.44310001349699
-8.02168703431828
-8.61342138274937
-9.19562471755601
-9.75328562570354
-10.280876330772
-10.7824253960847
-11.2705836571952
-11.7654602685336
-12.2936823358807
-12.8875620948669
-13.5836295073625
-14.4193157715601
-15.4264368349458
-16.6204436521208
-17.9852099115699
-19.4543538222781
-20.8915727857836
-22.0739442358148
-22.6832658497481
-22.3108846729959
-20.4807387160051
-16.693279972533
-10.4895831709794
-1.5306216960388
10.3178813924155
24.908456295317
41.7581899694847
60.0330609237595
78.5811251941649
96.018477635071
110.862989768479
121.70146556587
127.367980836208
127.106606372043
120.691744588627
108.484330399065
91.4115151635473
70.8695731015535
48.5624139009509
26.2988583009705
5.77868135152486
-11.6009319024918
-24.8906968412101
-33.666967924775
-38.0340425226575
-38.555462037829
-36.1296353442083
-31.8327608920112
-26.7553077538326
-21.856983855498
-17.8597781792485
-15.1905876216906
-13.9757742716151
-14.0814250157107
-15.1865092176897
-16.8724617811932
-18.7122626709913
-20.3445495269475
-21.5229160918342
-22.136249715653
-22.2016045159493
-21.8356879236656
-21.2138590110718
-20.5263061060152
-19.9399218172302
-19.5718166378043
-19.4771231114975
-19.6505102391689
-20.038305323815
-20.556713806907
-21.1114332706417
-21.6147800332157
-21.9978864535104
-22.2171128475087
-22.2551413558704
-22.1180345910262
-21.8298052365814
-21.425882534387
-20.9464993411469
-20.4306748852585
-19.9112619604307
-19.411468387354
-18.9432529556136
-18.5078975351456
-18.0987708125806
-17.7058270647579
-17.3208449087367
-16.9420063216547
-16.5763491571019
-16.2390154941889
-15.9490323565932
-15.7224071952426
-15.5642905784709
-15.4625270362133
-15.38484913752
-15.2812173053565
-15.0915285447538
-14.7574460363866
-14.2358518963256
-13.5107648640521
-12.600702454655
-11.5593899853293
-10.4691953407268
-9.42831805906573
-8.53416644476141
-7.8661787183667
-7.47141252180683
-7.35557095428152
-7.48095747931064
-7.77146499856976
-8.12342684169434
-8.42023990756835
-8.54824243993181
-8.41139076638866
-7.94272861477978
-7.11132458858042
-5.92411192031714
-4.4227787246554
-2.67645419734851
-0.771384896638186
1.20091485385845
3.15543061777651
5.02378018960442
6.76140064567688
8.3509058506611
9.80129857569115
11.143353837822
12.4220789002417
13.6875882525417
14.9859226391357
16.3512555687882
17.8005971607097
19.3316062129408
20.9235688593663
22.5411054058851
24.1398051841761
25.6727976615623
27.0972398425937
28.3798016749989
29.5004222566347
30.4538581682011
31.2488328268076
31.904911363993
32.4475527364662
32.902095984645
33.2876670934201
33.6120830114612
33.8687274104874
34.0360623066378
34.0799588435858
33.9584737307058
33.6281963865642
33.0509773657842
32.1998102360948
31.0628899135954
29.6453376631352
27.9686269083817
26.0682028018191
23.990033073761
21.7868073502019
19.5142631743839
17.2277852753896
14.9791572955938
12.813268189575
10.7647311325976
8.85469813799555
7.08850043342721
5.45493508855499
3.92791656641489
2.47078435472185
1.04289824866008
-0.392541132998959
-1.86100058711569
-3.37110303490756
-4.91237967737057
-6.45681369537623
-7.96377608209962
-9.38713218434383
-10.6828298831324
-11.8153011220523
-12.7614910780338
-13.5120972920196
-14.0703923430667
-14.4495636240508
-14.6696741852505
-14.7551187505186
-14.7329516303252
-14.6319179399445
-14.481646246413
-14.3113970714844
-14.1480147992411
-14.0131812757544
-13.9205242554343
-13.8734033527441
-13.864167838264
-13.8753587890455
-13.8828265365591
-13.8602272703159
-13.7840155859163
-13.6379587656277
-13.4163613524737
-13.1255169289934
-12.7832695340586
-12.416858675648
-12.0593892289835
-11.7453329341663
-11.5055019909859
-11.3620076198792
-11.3238494308431
-11.3839245225762
-11.5182890453318
-11.6883300431588
-11.8460468685601
-11.9419410662239
-11.9342330999173
-11.7975081856212
-11.5286894933227
-11.1486007561782
-10.6983008576972
-10.230650115879
-9.79885675232315
-9.44466387868361
-9.18906672029583
-9.02788259984384
-8.93326027737962
-8.8606520948599
-8.75933591373291
-8.58368815366739
-8.30233269292832
-7.90303210141627
-7.39250511098507
-6.79183276335987
-6.1293031345929
-5.43309524751912
-4.72598341397525
-4.02336668321479
-3.33470687250379
-2.66729669615638
-2.03054007766148
-1.4388210759008
-0.911568803358448
-0.470100518372475
-0.13192800954316
0.0958911256663224
0.222339207537402
0.275073954956011
0.298871184082589
0.349609437776314
0.484594799361061
0.750931406800873
1.17420840915283
1.74989517075302
2.43949671907901
3.1727761357406
3.85631075265802
4.3874686139965
4.67175843851257
4.64062846653011
4.26636992549595
3.57097533621526
2.62666898779175
1.54728416061243
0.471469585553161
-0.459502933552885
-1.12521142857419
-1.44618832850809
-1.3965022672472
-1.00614761446822
-0.352750446071988
0.455531101283544
1.30205840758816
2.08378924302013
2.72857151423007
3.20413322555943
3.51737118223171
3.70494101256422
3.81819973326257
3.90672727193255
4.00468370357137
4.1231934335476
4.25013056913154
4.35664121373693
4.4080349945089
4.37573508182001
4.24697769449748
4.02981082842867
3.75234809009051
3.45676530003514
3.18978097803092
2.99205932204951
2.88902154482781
2.88503259570668
2.9620524928733
3.08285467284225
3.19803603889445
3.25541485065828
3.21008636249327
3.03336986101047
2.71909138305678
2.28605851192846
1.77615880657934
1.24820891479111
0.768428764419232
0.399104717224933
0.187491710354849
0.15713769983094
0.303491547852035
0.594873786962124
0.978772663215033
1.39221821699749
1.77399223696405
2.07593785334301
2.27081248943059
2.35497577985205
2.34551940670457
2.27287976874227
2.17112676536428
2.06866061220154
1.98181371466759
1.91291316359793
1.85299002585226
1.78793270836123
1.70588743338042
1.60340203313152
1.48827163306032
1.37812376973139
1.29513906752588
1.25852678019181
1.27709751903709
1.34429275371623
1.43735192859809
1.52113638859308
1.55582834419651
1.506649411272
1.35317982433343
1.09593240999869
0.758493249448916
0.384586167876198
0.0305757129355993
-0.24508000345703
-0.393284697239928
-0.384362703426872
-0.214715170628028
0.0912630226386593
0.48444609732531
0.898901241955359
1.26309319424608
1.51236633625723
1.60042597244977
1.5076753545779
1.24480892464003
0.85093775216651
0.386575980097698
-0.0771636693026615
-0.471056975587464
-0.739511499147312
-0.849350800630578
-0.794121717616071
-0.593419892114976
-0.287800916783604
0.0692959272658488
0.420744766592603
0.714246151407722
0.908845747532235
0.978882771585582
0.915513034642574
0.726431027244879
0.434528039878119
0.0759862649425269
-0.302126459350896
-0.645102364369509
-0.895179807765253
-0.997759594625365
-0.908989683420158
-0.603738152566998
-0.0823579989565133
0.625598867072553
1.46226810985695
2.34767684135859
3.19079089524775
3.90369838005781
4.41630144905936
4.68856126368931
4.71772747565976
4.53900155483707
4.21947508792353
3.84659438320412
3.51348396282999
3.30397208705138
3.28002477127864
3.47360499352162
3.88395062394161
4.48017680013766
5.20819420706908
6.00034463972108
6.78593304884538
7.50093565306383
8.09549346746468
8.53826273312297
8.81721573977252
8.93702338510796
8.9136722284748
8.76742957886105
8.51560032407721
8.16663053380963
7.71692852470628
7.15126913949361
6.44688115542294
5.58044213054147
4.53643398762843
3.31486537033139
1.93639657059221
0.443439406553244
-1.10326783076103
-2.63202754227094
-4.06996200621365
-5.3531201495019
-6.43481167818792
-7.29058065990259
-7.91911005237179
-8.33933643977899
-8.58487596522057
-8.69731138257259
-8.71988471852922
-8.69273823167252
-8.65021512547468
-8.62008434239979
-8.62407970427231
-8.67895132430433
-8.79732155670429
-8.98793352381851
-9.2552437863331
-9.59861224142609
-10.0114991767821
-10.4810754400706
-10.9885288226593
-11.5101785711364
-12.0193540692145
-12.488884186261
-12.8939736945638
-13.2151836387365
-13.4411604227766
-13.5706806707163
-13.6135401412848
-13.5898811864785
-13.5277776317675
-13.4592807096621
-13.4156025093347
-13.422533061453
-13.4973814013576
-13.6485568926982
-13.8783135595122
-14.1882478358362
-14.5860815016217
-15.0913756734947
-15.7374142495602
-16.5667873349276
-17.6192592091828
-18.9121906845691
-20.4157955829153
-22.0274260133373
-23.5504599647211
-24.6838391547546
-25.0276551836846
-24.1083788224237
-21.4245398277027
-16.5102385577958
-9.01028696525587
1.24240107702452
14.1587391971887
29.3469625283169
46.0987167511361
63.4155348412779
80.0784257585331
94.7569609378278
106.147538655867
113.124567680445
114.884318009147
111.060121770857
101.790024445484
87.7238302588315
69.9650266594623
49.9529839010882
29.3003988038395
9.60842053912944
-7.71419995457151
-21.6020885968237
-31.4333960126911
-37.0665786787274
-38.8116708632695
-37.3443281568603
-33.5794675157857
-28.5265155434809
-23.1493528304494
-18.2511000552126
-14.3977966215585
-11.887175046483
-10.7607341396025
-10.8506160058938
-11.8484305334013
-13.3816089522338
-15.083984648172
-16.6505001975419
-17.8703425223217
-18.6374536756625
-18.9414029031681
-18.8444275870206
-18.4517546036271
-17.8821069919416
-17.2438536559365
-16.6200251374102
-16.0629355484347
-15.5969442325899
-15.2263780869445
-14.9450548245036
-14.7442183801396
-14.616824945063
-14.5576415617163
-14.5601025674633
-14.6119097411795
-14.6916942068935
-14.7686227654025
-14.8057892593416
-14.7669157742549
-14.6247059290042
-14.3685041873625
-14.008929700339
-13.5778671210035
-13.1233993536721
-12.7006081875898
-12.3602672280864
-12.1380095555921
-12.0464385922009
-12.0719275088354
-12.1767442784078
-12.3059528002626
-12.3975689220136
-12.393893937629
-12.2518734123487
-11.9506744104541
-11.4952942989581
-10.9157412707673
-10.2620222965764
-9.5957567264051
-8.97967436253523
-8.4665533024165
-8.08929837389073
-7.85382575122315
-7.73615596920871
-7.68458919984018
-7.62705518479231
-7.48278543575937
-7.17651803650285
-6.65273649505942
-5.88717542326594
-4.89313091626787
-3.72099273273039
-2.45071681923546
-1.17840331000385
0.000597211016060639
1.00885927190297
1.80105930539222
2.37247825265932
2.76030554023919
3.0376420763214
3.30147085221052
3.65689840404908
4.20048757089366
5.00545564587838
6.11098234823013
7.51702467693797
9.18506643845538
11.0443145858204
13.0021164934727
14.9568775308934
16.8115263910173
18.48560032623
19.924286992193
21.1032395003076
22.0286347970995
22.7326998864201
23.2656755126645
23.685785352282
24.049094928213
24.401085171827
24.7713179303712
25.1718213836238
25.5989476761918
26.0376753671156
26.4668522356484
26.8638269490361
27.2073060175182
27.4779715202791
27.6571878466658
27.7247678196583
27.6570658175876
27.4265353040436
27.003384604436
26.3592583875493
25.4721918054549
24.331640422194
22.9423076542189
21.3257775309198
19.5195054904873
17.5733458832636
15.544319254901
13.4906175263994
11.465871909837
9.51451509071043
7.66875854282578
5.94738676602932
4.35631554255719
2.89068793403364
1.53816016145501
0.282915513387973
-0.890183340867972
-1.99200927445685
-3.02689325753608
-3.99226590590921
-4.88048789603364
-5.68261197632135
-6.39322392472698
-7.01503083183386
-7.56169595146372
-8.05768773589279
-8.53461612357435
-9.02451966423282
-9.55156888492049
-10.1243471900104
-10.7310029329634
-11.3390300634843
-11.9003265132098
-12.3607822787958
-12.6723545426468
-12.8047776867356
-12.7539859014874
-12.5450392606254
-12.2286574696776
-11.8720226974265
-11.5458919617538
-11.3108986620793
-11.2060242533255
-11.2416004074097
-11.3980700561579
-11.6304217261543
-11.8770570390597
-12.0711104340725
-12.1520193338541
-12.0753940197202
-11.8198005125442
-11.3897488750561
-10.8148072108369
-10.1452472590366
-9.44496017802358
-8.7826011305245
-8.22207442719839
-7.81357028616523
-7.58637682812974
-7.54455540915469
-7.66623307125588
-7.90673399661034
-8.2051182452542
-8.49306196367886
-8.7045645366859
-8.78483763358048
-8.69696671776052
-8.42547626945764
-7.97662076977817
-7.37586631380574
-6.66344943735049
-5.88901200267103
-5.10613845230284
-4.36728737030503
-3.71928198260527
-3.19934905849664
-2.83173435039653
-2.62512831478338
-2.57137282603433
-2.64602192964043
-2.81117485917129
-3.02056841705907
-3.22631331014203
-3.3860849513542
-3.46925791719507
-3.46056713823645
-3.36041881124961
-3.18183384985221
-2.94493494061393
-2.67058804698356
-2.37503993216844
-2.06705827049464
-1.74826852587733
-1.41634332582772
-1.06977004352682
-0.712407026997737
-0.35611190722182
-0.0203663860134478
0.271178592365581
0.49628432926912
0.640158601246064
0.70008837828002
0.687227447867272
0.624951559613198
0.54420790398755
0.47712980418932
0.450605081793344
0.481376360661478
0.573692738855459
0.719744882644491
0.902373515764688
1.09907138962644
1.28620503522426
1.44262158258619
1.55222074001849
1.60546683544831
1.60003958457185
1.54082686530008
1.43931329375938
1.31225328283498
1.17947763003519
1.06084185652442
0.972648701050526
0.924234452393414
0.91562340257759
0.937084141140294
0.971024367932427
0.996026716266801
0.992153914691263
0.94617424021499
0.85526569947348
0.728114619598898
0.583041681276896
0.443646604278566
0.333186107197531
0.269251955819036
0.260182525329038
0.304070326287105
0.390412782907378
0.503665142915503
0.627447105333771
0.748079818085071
0.856487000424814
0.948137126420141
1.02139791433101
1.0751814499529
1.10691934906007
1.11169402252021
1.08286809622991
1.01398972873489
0.901310002306077
0.74607161981422
0.555850064041167
0.344572413981914
0.131255970499913
-0.062159544729904
-0.213371269405682
-0.302213409979298
-0.312845186577829
-0.235581663628555
-0.0684281398196865
0.181672135961684
0.498043235378848
0.854299294842634
1.21564003469886
1.54176100055961
1.79138670650535
1.92796128930168
1.92557200537907
1.77390836363363
1.48109862434374
1.07364156712545
0.593275638944007
0.091322198827533
-0.378401489176694
-0.766743545442606
-1.03519868980606
-1.15986191358046
-1.13306612839297
-0.962935027700598
-0.671404329661243
-0.291319862343037
0.136948630601095
0.569203788114744
0.961452084133649
1.27430692742765
1.47759331489527
1.55463797773593
1.50540364620603
1.34750063782879
1.11430830547568
0.849976527344724
0.601837812336435
0.411528627710788
0.306647649077892
0.294874049696366
0.362057186322011
0.474948524154439
0.588188284219612
0.654163058717566
0.633679651544443
0.505221836139362
0.270895854091367
-0.0420879973700445
-0.384616703711299
-0.692885915492055
-0.898285103224083
-0.938279514738966
-0.766588431703113
-0.361176375247716
0.271067332126902
1.09366146069269
2.04412203361121
3.04155704443727
3.99747661169724
4.82847265045715
5.46893726170499
5.88171237204534
6.06463956475684
6.05149893927647
5.90676850399651
5.71484408930305
5.56556363326221
5.53876435548986
5.69090380921269
6.04637442326879
6.59510622372493
7.29663689862798
8.08939827139109
8.90289443927435
9.66999385788822
10.3368070332115
10.8684546740439
11.2501762567204
11.4843530773537
11.5848340907883
11.5702939939975
11.4582169144816
11.260618412382
10.9819986977908
10.6194597716679
10.1645462554717
9.60621250010155
8.93432102531282
8.14314456140291
7.2343971444349
6.21933536204584
5.11948799200381
3.96566574406837
2.79513557908212
1.64722111083206
0.558036562616006
-0.444564665764661
-1.34460341153044
-2.13912684028245
-2.83642616360529
-3.45162904953473
-4.00076940936647
-4.49498561979269
-4.9365949104109
-5.31835770389827
-5.62636890048966
-5.84593225850346
-5.96881080587324
-5.99970522662391
-5.95988196335633
-5.88656120431372
-5.82780112607728
-5.83386148891171
-5.9470392705887
-6.19245199433509
-6.57206571918763
-7.06348070814253
-7.62382392779368
-8.1978756029652
-8.72859796568718
-9.16776740282994
-9.48451752038481
-9.6702049455392
-9.73891822824337
-9.72391770776685
-9.67109558935593
-9.63102948840885
-9.65131402224712
-9.77062418154629
-10.0154763409026
-10.4000122890694
-10.9284381700172
-11.5990929914736
-12.4085888566777
-13.3541573030279
-14.4323647821309
-15.6328270383003
-16.9265059621008
-18.2495597023469
-19.4853448052768
-20.4487058517626
-20.8777099018496
-20.4380689098002
-18.7443451365739
-15.3995927157329
-10.0516047930092
-2.45997557437068
7.43545288202629
19.4566367769357
33.1522564740955
47.7960539971387
62.4249274996177
75.917144961772
87.1042242659687
94.9036004495386
98.4544012862015
97.2364851914406
91.153929284851
80.5684022027168
66.2747571991743
49.4196942393894
31.373108036144
13.569308932331
-2.65963652186278
-16.2345931296221
-26.4424662035626
-32.9959654906936
-36.0327813336131
-36.0567004382385
-33.8324766186411
-30.2533860091133
-26.2040246395643
-22.4404039847202
-19.5049440542397
-17.686529163978
-17.0269466834546
-17.3665895120795
-18.4159294788143
-19.8361039987329
-21.312392406351
-22.6079787071015
-23.5911295996193
-24.2353156238139
-24.5974160196874
-24.7828515698506
-24.9077233253305
-25.066872645519
-25.3138378180227
-25.6549114652929
-26.055903269121
-26.4575894742612
-26.7946238020861
-27.0129167218818
-27.0818311271084
-26.9994529718497
-26.7911009493167
-26.5026827741187
-26.1912409472495
-25.9150432915112
-25.7250352171499
-25.6586560429773
-25.7362134636338
-25.9594231875997
-26.3114596754865
-26.7579192414769
-27.248370505672
-27.7185153660396
-28.0932616484306
-28.2911080280238
-28.2301136641957
-27.835387336585
-27.0475627432716
-25.8312501723
-24.1821084318123
-22.1310871897849
-19.7446227691124
-17.1201300966782
-14.3769354186099
-11.6436794186743
-9.04398666326613
-6.68264901814531
-4.63457198790976
-2.93825177668661
-1.59467799387872
-0.571490868102779
0.188779441400931
0.758253156022079
1.21309548320604
1.62454599136817
2.05267625153171
2.54311491682777
3.12622332045467
3.81776699412987
4.62011244961246
5.52333792068185
6.50620484624576
7.53745110744352
8.57811689830481
9.58548134138077
10.5187001867679
11.3455570732199
12.0491173297797
12.6327420143717
13.1220283508398
13.5627961385163
14.0150981826594
14.5441575922583
15.2098663027036
16.0568191457448
17.1067280547803
18.3545204404292
19.7686422669264
21.2952760776839
22.8655410795545
24.404382352667
25.8397943217651
27.1111886983142
28.1759954493801
29.0138734854311
29.6281528111617
30.0443415769353
30.3057621246452
30.4666827246988
30.583695717996
30.7064989373748
30.8695450765522
31.0860917022171
31.3459095174998
31.617277023162
31.8530123711998
31.9993756000276
32.0059684363427
31.8344810215633
31.4643919965293
30.8944747451939
30.1400065273916
29.2266355099013
28.1826442567857
27.031650252023
25.7875411934307
24.4527497772746
23.0200463073283
21.4771343939097
19.8127086738803
18.0224080621719
16.1132800146434
14.1058543652958
12.03353921813
9.93962382628357
7.87258216164087
5.8805691126152
4.00601100187281
2.28107412419343
0.724611246512663
-0.659027236089784
-1.87916825072218
-2.95609885711628
-3.91687984878515
-4.79040657069602
-5.60264453171354
-6.37300692295266
-7.11264452732761
-7.82498553649513
-8.50827810140673
-9.15930951975403
-9.77708834683073
-10.3652290055673
-10.9321264851273
-11.4886778722992
-12.0441084984961
-12.601143138565
-13.1520965834548
-13.677312195771
-14.1467704355481
-14.5247912536102
-14.7768349195578
-14.876750625358
-14.8126385412269
-14.5898397075768
-14.2303426569346
-13.7688568707261
-13.2466582720869
-12.704810283301
-12.1783770665458
-11.6928040613059
-11.2629165742809
-10.894227681793
-10.5856879985894
-10.3327977252302
-10.1301500410678
-9.97287561205991
-9.85693135896158
-9.77854644835319
-9.73329730108414
-9.71522529896875
-9.71622025953245
-9.72569701357138
-9.73049969835618
-9.71501772626937
-9.66164233256855
-9.55182472998414
-9.36799907174272
-9.09643965327906
-8.73075745221953
-8.275324983691
-7.74762316918484
-7.17848879061287
-6.60958310243338
-6.08805309621798
-5.65914573049221
-5.35821825269561
-5.20392936981975
-5.19425451271484
-5.30635128364422
-5.50037134070419
-5.72634242388845
-5.93251853290278
-6.07333034078348
-6.11532687699096
-6.04018002601572
-5.84469118739562
-5.53851148930804
-5.1407289079173
-4.67647980065157
-4.1743585282873
-3.66480836794532
-3.17912084489519
-2.74835959457361
-2.40156444740905
-2.16294935710676
-2.0483334999942
-2.06153127463112
-2.1916893437573
-2.41250069061456
-2.68386721752489
-2.95604462942461
-3.17575595045238
-3.29335677247084
-3.26996232785089
-3.0835025553747
-2.73288528265507
-2.23972157181697
-1.64732507904255
-1.01691636286499
-0.421175368745652
0.0644520723298158
0.371938338378381
0.451180719211009
0.279285529304399
-0.133106738171663
-0.740047280102345
-1.4640856775224
-2.20574338062861
-2.85758477593852
-3.32072152935616
-3.52084974749958
-3.42077652323246
-3.02693285670201
-2.38850176309975
-1.58925734712107
-0.733662335871919
0.0701366723842729
0.727287049989468
1.17023980890257
1.36761576854912
1.32686434618516
1.09082193029012
0.729253382875005
0.327085869672154
-0.0287169442246442
-0.261775008467312
-0.316828821000242
-0.166998092407692
0.183020346137997
0.698164544062031
1.31850217665841
1.96834880891578
2.5677968393653
3.04496185047133
3.34698123655169
3.44786485332632
3.35176253659092
3.09103498529418
2.71953420088199
2.30247869061953
1.90499574754005
1.58161302222146
1.36865647029157
1.28074337630583
1.31156286803924
1.43818494310265
1.62747875814412
1.84299774987336
2.0509097610359
2.2240898074371
2.34414499959898
2.40169133754517
2.39550024728171
2.33113642524962
2.21948649710173
2.07527305505824
1.91541655328835
1.75705513420078
1.61517850496456
1.50010440259196
1.41529493561337
1.35614163070535
1.310259576592
1.25952391426716
1.18364163568767
1.0646163570912
0.891173551258139
0.662161062498298
0.388139001431127
0.0907601951166066
-0.199997797286515
-0.450278007579381
-0.627723726063825
-0.706946538224912
-0.674277690409617
-0.531126114417348
-0.29542815111099
-0.000844511294343264
0.306448081630569
0.573275515995807
0.74687211225604
0.7833586405217
0.656094704536875
0.362451771924577
-0.0724508948610322
-0.596176309184206
-1.13403977646834
-1.59842318211747
-1.90104918893782
-1.96624864432244
-1.74296346189567
-1.21341105143889
-0.396948694835994
0.651443664920669
1.84771708415731
3.08923439117456
4.26760051332119
5.2821194567849
6.0522644050638
6.52779513271996
6.69543910780004
6.58132524025718
6.2486514009158
5.79045412249898
5.31789776197286
4.9452090829633
4.77314693310198
4.87351693367834
5.27748149635594
5.9700875246464
6.89248207106799
7.95183741340437
9.03736440705053
10.0393649821624
10.8674608542947
11.4642029772077
11.8112571014963
11.9270631639833
11.8568615900806
11.6577548890677
11.3825650659382
11.0663764147771
10.7188033168949
10.3234453595759
9.84413116030386
9.23591260944912
8.45777268298938
7.48387077441168
6.31083418963465
4.95985010628729
3.47372182799413
1.91022341991481
0.333729236811775
-1.19288925845004
-2.61461766326117
-3.8882159443261
-4.9837970859597
-5.8847051493554
-6.5865093916459
-7.09577603956786
-7.42892856432037
-7.61114209287171
-7.67498937910614
-7.65853475258889
-7.60273432063545
-7.54825166972301
-7.53202406537347
-7.58402970622947
-7.72468665090197
-7.96319322043921
-8.29696593360816
-8.7122069994342
-9.18556484802609
-9.68681741168156
-10.1824580066354
-10.6399505643196
-11.0322356493825
-11.3418577272866
-11.5639394824992
-11.707252527008
-11.7928902928484
-11.850527190867
-11.9128489707893
-12.0092968810562
-12.1606006467912
-12.3755455339064
-12.650985452789
-12.9753519901651
-13.3349924573869
-13.7218228440679
-14.1402151357877
-14.6108947010423
-15.1699445986004
-15.8617450466698
-16.7256966235317
-17.7777383510308
-18.9888372687303
-20.2636724972898
-21.4235457358894
-22.1979816013445
-22.2293589365916
-21.0940433565169
-18.3417181469777
-13.5519145538873
-6.40332992008798
3.25211996771464
15.3216985565762
29.4236301801768
44.8707814073121
60.6957131607341
75.7209822743287
88.6711427323066
98.3149106569063
103.619024184386
103.89103939732
98.8878381148351
88.87043961451
74.5933798976557
57.2271846813815
38.2234567031795
19.1417532695345
1.46389749937556
-13.5765947360205
-25.125060872489
-32.7783291287445
-36.5914974584799
-37.0218589786134
-34.8229399445887
-30.9088264880401
-26.2122507888345
-21.5589142812886
-17.5756999467032
-14.6429179880115
-12.8921223444857
-12.2430122242711
-12.4669413966118
-13.2615442571398
-14.3212421729193
-15.3915377570854
-16.300112056365
-16.9635616195198
-17.373859021622
-17.5722359329076
-17.6195640923382
-17.5713923070662
-17.4630644243821
-17.3066601177063
-17.0978918974811
-16.8284809036096
-16.498515466419
-16.1240007808529
-15.7368909143283
-15.3776518484836
-15.0829824091706
-14.8729594893647
-14.7421213282595
-14.6578281891524
-14.5670315993503
-14.410020596724
-14.1375599474591
-13.7267151016172
-13.190880276006
-12.5810050427546
-11.9773133189251
-11.4732754205364
-11.1555585171438
-11.0846429028551
-11.2805488453731
-11.7168021950027
-12.3237778493293
-13.0004377510232
-13.6317434064232
-14.1080367805395
-14.3425843903871
-14.2841752164441
-13.922894466769
-13.2886312640395
-12.4432099040223
-11.468038812642
-10.4497357698813
-9.46629630061264
-8.57607330076941
-7.81121283201774
-7.17634331942002
-6.6523585418856
-6.20420547852199
-5.79084254558387
-5.37512839974108
-4.93145455826738
-4.4494809892319
-3.93328895712662
-3.39642493669104
-2.85438511988638
-2.31678446727225
-1.78155074457493
-1.23292303433027
-0.643947317165389
0.0171538948026892
0.778523774539813
1.65657035130648
2.65061429248995
3.74191459977859
4.89745127002822
6.07747859395831
7.24479120470912
8.37318395764496
9.45286184037475
10.4914652775018
11.5106270143865
12.539184699279
13.6049866804516
14.7274380495528
15.9125301841766
17.1512590882407
18.4213603042622
19.6914752016078
20.9264286569728
22.0923051123918
23.1603707995491
24.1094169770186
24.9265860901702
25.6070420287859
26.1529123667546
26.571821478925
26.8751655035195
27.0761691772458
27.1877730021878
27.2205127089583
27.1806944380161
27.0692406467362
26.8815149319129
26.6082246152014
26.2372132956403
25.7556993105899
25.1523938599445
24.4189986321802
23.5508170185602
22.5465276501611
21.4074439826836
20.1367158426617
18.7388743496637
17.2199134048419
15.5878340759289
13.853368904803
12.0305386085652
10.1367942050514
8.19270779332036
6.22138810965836
4.24790222321016
2.29892018212973
0.402583623689253
-1.4116703355088
-3.11378379334165
-4.67468604953616
-6.06900241757812
-7.27857911735756
-8.29605966318767
-9.12743933048758
-9.79254915368
-10.322835197433
-10.7565153673855
-11.1320014876027
-11.4810968608816
-11.8236845528888
-12.1653018256247
-12.4982199784762
-12.8056476153736
-13.0677697894711
-13.267826546601
-13.3964967419829
-13.4534699808478
-13.4460543560951
-13.3856519446994
-13.2836005608962
-13.1480007740865
-12.982683600602
-12.7885942244781
-12.5668874418138
-12.322307559851
-12.0652298342945
-11.8111602401801
-11.5773964994976
-11.3776406624349
-11.2162432421121
-11.0841274862797
-10.958133484089
-10.8046020594378
-10.5867585602058
-10.2742448864572
-9.85236487894487
-9.32850475550723
-8.73381050149571
-8.11937396895496
-7.54756532998147
-7.08036407910463
-6.76726022966061
-6.63535300288813
-6.68369100549916
-6.88287138670426
-7.17974077408213
-7.50601829720823
-7.78901190429172
-7.96241560499321
-7.97541656208283
-7.79887061575818
-7.42794986442028
-6.8812747657189
-6.19702236819372
-5.42682273825586
-4.62843312769339
-3.85824253367937
-3.16462298493893
-2.58300108193993
-2.13325774877078
-1.81967640104271
-1.63319163206095
-1.55523274115967
-1.5621310613954
-1.62898121431047
-1.73207287798074
-1.84950900907386
-1.96026855877711
-2.04255888105084
-2.07263074494554
-2.02515771571995
-1.87579457160837
-1.6057511946699
-1.20738669686693
-0.689222405908183
-0.0786201832384548
0.579228790845006
1.22648615434311
1.8013863584081
2.24882923096857
2.53054202301721
2.63246650341458
2.56760890753648
2.37364002039305
2.10575947698614
1.82640999038277
1.59406952763303
1.45342418141714
1.42875936224968
1.52157190370428
1.71244758537637
1.96641005580381
2.24039830721311
2.49133405725176
2.68336024044204
2.79316639545748
2.81275050602463
2.74940924083869
2.62315050799807
2.46206803158879
2.29650130876799
2.15300658709897
2.04924430079981
1.99079451755143
1.97061059230979
1.97132607801178
1.97001896408464
1.94444518067242
1.87933816432509
1.77126559155765
1.63079736810489
1.4813290401437
1.35468403265259
1.28438907862904
1.2980805973077
1.41071345749833
1.62006278239736
1.90549544698787
2.23028336607827
2.54701239416167
2.80506715250066
2.95884379333178
2.97528655077137
2.83952371209769
2.55772277896422
2.15671729707039
1.68042036555827
1.18349438234898
0.723164488052253
0.350406958389385
0.101955744699212
-0.00542227571875668
0.0228062030991869
0.160773144245005
0.367999234877932
0.598129212184938
0.808845224913075
0.970774210848325
1.07329075927073
1.12574829053126
1.1537370935499
1.19121433280115
1.27044562865482
1.41232373189775
1.61958675688285
1.87473185621804
2.14319556275844
2.38098543161156
2.54478687433977
2.6019562285909
2.53790511810245
2.35913273993005
2.09133557126032
1.77327406829087
1.44806073144927
1.15401462364816
0.91713087933117
0.746636714749687
0.634264870307488
0.557026286950355
0.482616019028854
0.376248783494311
0.207688144339913
-0.0425841056571523
-0.378836231509961
-0.787700916241881
-1.23822288776399
-1.68443646636633
-2.07035858314615
-2.3370069596305
-2.43071160159064
-2.31163832860159
-1.96118965883197
-1.38690485427134
-0.623725141317321
0.268973906766975
1.21443730246261
2.12873304223546
2.93250472796337
3.5623212597414
3.97970875969934
4.17637621938983
4.17485846871944
4.02463073382903
3.79451432263586
3.5627413678744
3.4062940723916
3.39107556485021
3.56416685140492
3.94897658261993
4.54360082075308
5.32226037080058
6.23932213931211
7.23515746063214
8.2429465468896
9.19550264894144
10.0312632462344
10.698778838477
11.1593115309668
11.3875023233822
11.3704191386783
11.1055817241818
10.598702230136
9.86183669633597
8.91241529092103
7.77326375956816
6.47334266679114
5.04862674357638
3.54241657440013
2.00446240229507
0.488564583429101
-0.951281524089129
-2.26571946789236
-3.41506505489979
-4.37364173885234
-5.13261023781155
-5.70074793261215
-6.10299589009063
-6.37696421366364
-6.56789557691577
-6.72278993773594
-6.88448282553075
-7.08646067623574
-7.34910989217621
-7.67794205499576
-8.06411277348241
-8.48724928015342
-8.92023130633212
-9.33517441368008
-9.70952808331942
-10.0310306847601
-10.300358798028
-10.530715162573
-10.7442751899146
-10.9662151812842
-11.2177615157667
-11.5100999370781
-11.8408998395565
-12.1946012553555
-12.5466052336935
-12.8703683388458
-13.1454696394109
-13.3643047361886
-13.5353426260951
-13.6818289773872
-13.8361899913344
-14.0317843067177
-14.2946231094594
-14.6378794877132
-15.0612935417874
-15.5560735672345
-16.1139703421259
-16.7373963890801
-17.4463313324762
-18.2777245467366
-19.2743519162503
-20.4624662665214
-21.8206624335578
-23.2455024927993
-24.5218741056486
-25.3071131420777
-25.1371506015984
-23.4602055254119
-19.699083695558
-13.3375794060274
-4.02074858997607
8.34596135061967
23.5164729174106
40.8602876324257
59.3691529686961
77.7214734445196
94.4027000149765
107.869995118475
116.740465740118
119.976031297969
117.036032125085
107.971752690195
93.4449452601056
74.6640199975069
53.2448342680331
31.0155474371686
9.79443571201913
-8.82594412456285
-23.6561842099768
-34.0238990382615
-39.8100346942286
-41.4068169006832
-39.6093000455298
-35.4624374904327
-30.091058676503
-24.540400264236
-19.6502606355772
-15.977717456435
-13.7735336619817
-13.0078799005968
-13.4335271592597
-14.6703058484913
-16.2937271111005
-17.9128474315437
-19.2268354467845
-20.0551216949734
-20.3413440281325
-20.1356361784318
-19.5625843572328
-18.7832105626011
-17.9587718060003
-17.2223679027439
-16.6618341204746
-16.3146990431646
-16.1736033167045
-16.198878998408
-16.3342007989847
-16.5213751540162
-16.7112848659347
-16.8694613487826
-16.9763335045247
-17.0235224171341
-17.0083237934693
-16.9286126111993
-16.7798698983228
-16.5550863178027
-16.2472523336033
-15.8533118422289
-15.3780567546351
-14.8365463735589
-14.2541609945442
-13.6641395862242
-13.1031600085135
-12.6059910381761
-12.2003750679385
-11.9031087370419
-11.7178950962452
-11.6351065016016
-11.6332598680477
-11.6818304851415
-11.7449969306787
-11.7859367607252
-11.7712898213332
-11.6753256136888
-11.48321963318
-11.1927552343146
-10.8138415820317
-10.36555669171
-9.87097756931626
-9.35072381000977
-8.81670592529681
-8.26780528152515
-7.68895821948597
-7.05435639503053
-6.33436742828138
-5.50462800431156
-4.55492692008168
-3.49528045438817
-2.35714208307154
-1.18889074689726
-0.0462980803751265
1.01985619957868
1.97591284279533
2.81399427740595
3.55478626307643
4.24352926101978
4.94009959726866
5.70563545991002
6.58907549967573
7.61697368802032
8.78904411201499
10.0803424598265
11.4492488171349
12.8489595762089
14.239404003618
15.5965483308352
16.9168713616114
18.2161206932938
19.5229071018488
20.8688916751425
22.2779991563344
23.7571510319919
25.2905202900854
26.8384542327773
28.3412274589055
29.7268858533113
30.9217666450118
31.8618918221926
32.5033335321691
32.8298118212077
32.856174009994
32.6269900806026
32.210237601134
31.6868681418071
31.137823993386
30.6306518059983
30.2080804967291
29.8806888662743
29.625080355827
29.3879305182722
29.0951076934525
28.66406992965
28.0171603733306
27.0933980689995
25.8568744848994
24.3007501745369
22.446836949185
20.3415757912941
18.0496851378931
15.6467999691068
13.2121348220737
10.8217684417798
8.54277112478845
6.42822516653075
4.51325758919703
2.81242494405174
1.31899573521259
0.00669478153908187
-1.16579534155175
-2.2478182804812
-3.28811964758824
-4.32609221979514
-5.38463026943289
-6.46615166643205
-7.55272595366977
-8.61033427018416
-9.59633024317802
-10.4684381040618
-11.1933180382254
-11.7529226053015
-12.1474866133354
-12.3948419200311
-12.5265825855265
-12.5822073504745
-12.6026112595787
-12.6241831320528
-12.67439297014
-12.7692819391622
-12.9128492615286
-13.0980590713574
-13.3090797400368
-13.5243653867994
-13.7202138244437
-13.8744255124848
-13.9696335515935
-13.9958195363627
-13.9515480710228
-13.8436055036321
-13.6850260609277
-13.4918722316262
-13.2794917201621
-13.0591715376727
-12.8360586480722
-12.6089022643982
-12.371673533396
-12.1165825829605
-11.8376102664373
-11.5335331773182
-11.2095902621975
-10.8773592233663
-10.5529397801903
-10.2540054105369
-9.99654173934179
-9.79207445436593
-9.64593808817393
-9.55676576133931
-9.51703748232833
-9.51433095970605
-9.53291871244573
-9.55550288150378
-9.56506260578237
-9.54688322357799
-9.49076443357847
-9.39317730711671
-9.25886119572477
-9.10117775334501
-8.94061275078021
-8.80119572222125
-8.70522615166584
-8.66736748533785
-8.68964927823216
-8.75898290293193
-8.84834368081624
-8.92186964549343
-8.94300957881814
-8.88385736431625
-8.73326671729175
-8.5014608407227
-8.21964799118549
-7.93442596563844
-7.69814982699247
-7.55754554525046
-7.54335568159376
-7.66355980118288
-7.90180023551924
-8.22133074723087
-8.5734594917303
-8.90843167792691
-9.18622850395951
-9.3849117482643
-9.50481269227338
-9.56782948609685
-9.61210416554784
-9.68318729909666
-9.82334188230284
-10.060861018665
-10.4012156065824
-10.8215720933158
-11.2697782229112
-11.6683352181659
-11.923178264152
-11.9363158641048
-11.6206236609238
-10.9144934413961
-9.79377229522917
-8.27863101621059
-6.43372635656723
-4.36118778054736
-2.18734809677443
-0.0454367762464867
1.94266021162343
3.68224231921235
5.11641753768567
6.22982384132056
7.04524841115351
7.61439822697112
8.00514574674352
8.28802347267123
8.52451900343154
8.75896376974629
9.01478301419787
9.29488868665214
9.5852954480173
9.86073471573324
10.0910943056588
10.247772222708
10.3093187774416
10.2659159624771
10.1222741975077
9.89848936335259
9.62843565067837
9.35549818036963
9.12591507469998
8.98062070046134
8.94707162468403
9.0328627170271
9.22281831891054
9.48061662257106
9.75498670729888
9.98936733233975
10.1329666339695
10.1507090839409
10.0297610384412
9.78115457006389
9.43625662664053
9.03911060200449
8.63665052498883
8.26919347030934
7.96336926932708
7.72885875265754
7.55924267812091
7.4362322105334
7.33583362002537
7.23474691879405
7.11550812096276
6.96942335890753
6.79700657813501
6.60622409741624
6.40923973606965
6.21850779666315
6.04302259459818
5.88538651728959
5.74017979433432
5.59393961092273
5.42687372880015
5.21621115155121
4.94080990235474
4.58632472869736
4.14996368600686
3.64374182994531
3.09526927033377
2.54552358192949
2.04369267608969
1.63988211980135
1.37705905522624
1.28386890804682
1.36981163492641
1.62372904871134
2.01578600156484
2.502353916331
3.03265070821018
3.5558001341254
4.02715840961683
4.41319756649027
4.69473332139236
4.86864035699518
4.94829153485387
4.96280104408729
4.95488091457498
4.97693832464083
5.08512721986373
5.33149224553968
5.75502017871715
6.3731166984637
7.17546067367769
8.12210463420444
9.14698966813906
10.1668372606419
11.0939789436034
11.850506919515
12.3805698657431
12.6579295715301
12.6870129947987
12.4973536520955
12.1330444904008
11.6401111620124
11.0551742365022
10.3982666409444
9.67137031085547
8.8625402479784
7.95391443778461
6.93092933221309
5.78993662557867
4.54213341848699
3.21299854810075
1.83783690785508
0.45512454282217
-0.900191772438121
-2.20154133670391
-3.43264150606901
-4.58645401176359
-5.6620978450304
-6.66114546853712
-7.5847025758405
-8.43217578133507
-9.20189052337014
-9.89301635399034
-10.5078286050537
-11.0533019589009
-11.5413597408702
-11.9876362813453
-12.4091368554092
-12.8215152470266
-13.2367379415675
-13.6616863475829
-14.0978791348737
-14.5421318385564
-14.9877436770909
-15.4257736544908
-15.8461129877572
-16.238284563829
-16.5920869448154
-16.8982651859208
-17.1493139873247
-17.340352083615
-17.4698469287306
-17.5399120898753
-17.5559976598024
-17.5260271381445
-17.4593169698075
-17.3658273502522
-17.2563274370532
-17.1438618222885
-17.0465013986224
-16.990843835956
-17.0152296045437
-17.1712906854087
-17.5223474481368
-18.1373604169603
-19.0796278533394
-20.3901691531751
-22.0667065799733
-24.0402976371613
-26.1528843658611
-28.1401510086256
-29.6248621611335
-30.1259544302167
-29.0877259746691
-25.9312607119685
-20.1267256315552
-11.2807293005989
0.771747549089281
15.8852109327508
33.5475960680023
52.8656310467569
72.602656328098
91.2725448267792
107.283934991451
119.119204820091
125.524485786646
125.682418085624
119.339570727903
106.865849358463
89.2330810778286
67.912630275302
44.7050661356497
21.5261210813382
0.18035263269255
-17.8442707482709
-31.5314843412538
-40.4208851731602
-44.6123995471812
-44.6952479670754
-41.6172100281851
-36.5183351107839
-30.5570440961638
-24.7554419793101
-19.8851402512727
-16.4062556120493
-14.462261239273
-13.9238861543287
-14.467917702871
-15.6726716759205
-17.1114758554459
-18.4284715028133
-19.3864724283998
-19.8832435433125
-19.9389740007229
-19.6627067476582
-19.2082399012484
-18.7302718023081
-18.3496063711194
-18.1327892897598
-18.0875611742311
-18.1719355839487
-18.3122568232268
-18.4246182110239
-18.4344768020568
-18.2908036664083
-17.9730920130349
-17.4914314091088
-16.8812125057709
-16.194655872734
-15.4913078505124
-14.8291419395668
-14.257242516934
-13.8104832630356
-13.5062812005906
-13.3434041078854
-13.3028243957865
-13.3506018775018
-13.4426372576586
-13.5308534083214
-13.5700137764836
-13.5241159574874
-13.3712387362763
-13.1059429899304
-12.7388020558202
-12.2932437860863
-11.8004525804106
-11.2934449311066
-10.8015041494051
-10.3459438204791
-9.93775891740541
-9.57726052048887
-9.25541000268822
-8.95635249213391
-8.66060343082369
-8.34840885580221
-8.00289624318568
-7.61269337214625
-7.17370258103169
-6.68971632367185
-6.17161677106195
-5.63507602813521
-5.09697266427477
-4.57110411691757
-4.0640863200653
-3.57245961277578
-3.08187049387499
-2.56876348598896
-2.00438949490568
-1.36029133432996
-0.613966273177153
0.246708685887346
1.22140980022101
2.29814686627381
3.45659214038553
4.6729573038202
5.92502231718287
7.19595566649593
8.47601664321177
9.76194344959179
11.0545657312947
12.3556915894722
13.6654424526698
14.9809171824887
16.2964784587769
17.6052915437175
18.9012520737368
20.1802941038699
21.4403214321817
22.6795577084042
23.8937582164981
25.0732292658674
26.2007740080417
27.2514601680556
28.1945613833794
28.9973476004421
29.6298223369355
30.0692166930266
30.3031368072573
30.3306761983286
30.1613913850389
29.8125952324725
29.3057731882041
28.6629885967243
27.9039442816087
27.0440306260862
26.0933726696253
25.0567137669247
23.9339791271134
22.7214886491724
21.4139078646931
20.0070084353294
18.5010908334907
16.9045451074284
15.2366391293727
13.5284275169675
11.8208370753467
10.1595615724777
8.58728688871692
7.13471892130631
5.81258063041166
4.60689808797729
3.47937006133739
2.37348351655648
1.22557665115073
-0.0213302658572357
-1.40400521709509
-2.92895750584507
-4.56832932341792
-6.2628021281195
-7.93093719280595
-9.48288658432622
-10.8354907070552
-11.9256344229792
-12.7193486685368
-13.2152918594028
-13.4425731589165
-13.454026732936
-13.3167506534533
-13.1018895123805
-12.875339792551
-12.6904847175699
-12.5834494425883
-12.5708890665295
-12.6500609767701
-12.8008611481505
-12.9895207273481
-13.1736521229386
-13.3082358375913
-13.3519594154112
-13.2731360764521
-13.0543500948776
-12.6950817288682
-12.2118719108475
-11.6360297656616
-11.0093385019627
-10.3785408148923
-9.78949201982794
-9.28174929627562
-8.88409746248734
-8.61122816345619
-8.46161826040198
-8.41665904206465
-8.44123758442659
-8.48614245518605
-8.49269554603074
-8.39977210080374
-8.15283712417786
-7.71390977770206
-7.07069548883017
-6.24276986459689
-5.28287497842851
-4.2721658178275
-3.30949686478015
-2.49626462881704
-1.91952783263918
-1.63674875086955
-1.66532191966033
-1.97908984635068
-2.51252851571768
-3.17161722119195
-3.84902524852155
-4.44049689945003
-4.85934852850333
-5.04673114763564
-4.97649406290551
-4.65474783622202
-4.1152294591016
-3.41210190618998
-2.61183056713907
-1.78539016747684
-1.0014884758744
-0.320980942146136
0.207641612215144
0.551832870345319
0.697599526213356
0.650859322783167
0.437121478934204
0.0991096871732838
-0.307791345249886
-0.721978257212994
-1.0832430025095
-1.34051844138285
-1.45859304846704
-1.42274000353203
-1.24051084738077
-0.940370899748754
-0.567316736369978
-0.176044336431644
0.177414556315667
0.444424613225401
0.591560196127507
0.606235223573741
0.499088364090937
0.302470388110434
0.0649829756353448
-0.157253740419774
-0.311206695406498
-0.357471053694531
-0.278622033568123
-0.0835239564138992
0.193529473195522
0.498917876493185
0.769974628259685
0.947433158696859
0.987517628911207
0.871217280314636
0.608896562233785
0.239393273210902
-0.176114790229589
-0.564211496096368
-0.851419512278138
-0.97637080289676
-0.900097112260983
-0.613037095171975
-0.137921311375873
0.471774908213344
1.13767966661092
1.76616222951407
2.26086166296866
2.53676785351321
2.53405191019062
2.22947590947559
1.64312854527524
0.838611913428358
-0.0842726517481586
-1.00390864274144
-1.79630938162049
-2.35623835255672
-2.61586007405878
-2.55693580117963
-2.21372689065523
-1.66569835720793
-1.02137580603815
-0.396727297666573
0.107313646007161
0.42342801374186
0.52883481479954
0.446653690274718
0.238014961397591
-0.0127772682269615
-0.216420717063246
-0.29616895985769
-0.201381701241891
0.0850650707102823
0.546132037137084
1.13597871777629
1.78963107071196
2.43484059380444
3.00408955650134
3.44507065841478
3.72845074103432
3.85217507384947
3.84193485100566
3.74774560056203
3.63694414945461
3.58435443811991
3.66086950842717
3.9221348205288
4.39923355911265
5.09312200618463
5.97398469136316
6.98574937937272
8.05492431856055
9.10197298453214
10.0528915174779
10.8486669365692
11.4508760778825
11.8426762394163
12.0255624167229
12.0132173544743
11.8243193072566
11.4761923721028
10.980734702645
10.3433148995725
9.56451840341211
8.64396675022049
7.58505734139081
6.39941117888056
5.11001299690292
3.75237597171205
2.37345393483445
1.02838317013318
-0.224567193404657
-1.33022164191778
-2.24310557326485
-2.93351851878909
-3.39213354490627
-3.63229466841122
-3.68945963914858
-3.61766125368149
-3.4833687960524
-3.35761022898122
-3.30754061013983
-3.38871846206394
-3.63915329042183
-4.07577248031892
-4.69345287716403
-5.4663273331744
-6.35083576126329
-7.28999106884786
-8.21851907046681
-9.06877085114043
-9.77742870240747
-10.2929067253458
-10.5829624720315
-10.6414956726626
-10.4930311119735
-10.193219296328
-9.82403611723926
-9.48327005256456
-9.26920895542041
-9.26285992920257
-9.51114368799817
-10.0149169177839
-10.725164644645
-11.5492820948464
-12.3673013847878
-13.0556767637123
-13.5143587572965
-13.691822900192
-13.6027334946487
-13.33401414015
-13.0370134026786
-12.9057819522303
-13.1437644300465
-13.9230838228955
-15.341842439979
-17.3854301796441
-19.8977779293762
-22.5679092831204
-24.9360673460179
-26.4220900420231
-26.3765038831761
-24.1519830176841
-19.1895204757067
-11.110263258517
0.198909790830045
14.5195846786319
31.2689163350627
49.5099749735844
68.010488320761
85.34815342445
100.053003816443
110.770325109087
116.422735545516
116.34840267489
110.394495119111
98.9506962236776
82.9160639257556
63.6023100415991
42.586041065661
21.5300623418641
1.99825872506407
-14.7108547626412
-27.6900973820756
-36.4938176900813
-41.1456958855626
-42.0868868985901
-40.0757811528542
-36.0570572259868
-31.0210106002602
-25.8739670908472
-21.3371317333634
-17.8852426560398
-15.7290623357254
-14.8383992144645
-14.9962923268263
-15.8711772149027
-17.0927596973076
-18.3188713723452
-19.2841742203416
-19.8262792192484
-19.8895836207779
-19.5109739913587
-18.7938657775675
-17.8776545059924
-16.9087503754574
-16.0174711203627
-15.3028221022286
-14.8251896549948
-14.6056108066099
-14.6296940106012
-14.8543401231969
-15.2158789630103
-15.6387815136768
-16.0444880244123
-16.3600030861169
-16.5257929265966
-16.5023226785986
-16.2744628111399
-15.8530941584231
-15.2735719075995
-14.5911911993329
-13.8742881543279
-13.1959651262054
-12.6255574434658
-12.2208560812385
-12.0218411503903
-12.0463801017674
-12.2881052542402
-12.716554604687
-13.2796121187496
-13.9082381021456
-14.5233450554564
-15.044398005675
-15.3989252964069
-15.5317215075389
-15.4122633170174
-15.0388891445483
-14.4386929537424
-13.6628190196337
-12.7777683869517
-11.8542092461242
-10.9553799865864
-10.1273071240945
-9.39267658817687
-8.74938692531138
-8.17378685720905
-7.62762226930647
-7.06702842078748
-6.45164641710025
-5.75213327629889
-4.95486594606537
-4.06333133873445
-3.09635844679201
-2.08384687520463
-1.06092262920165
-0.061528660515427
0.887598634071199
1.77173759934418
2.59109865015523
3.36137074975892
4.11168858037368
4.88018176153943
5.70771091523574
6.63082666847211
7.67527716626869
8.85140912119434
10.1524865436458
11.556321355321
13.0298136643513
14.5352572297066
16.0368080688764
17.5055012968526
18.9216599575405
20.2743434691025
21.5583861387839
22.7702897788833
23.9045251996149
24.9515681255378
25.8983223668862
26.7306948988927
27.4372880575722
28.0127402144587
28.4593316562896
28.7860527840728
29.0052118003071
29.1275384702924
29.1573172381403
29.0891571838125
28.9075490545937
28.5895215606303
28.1097670334727
27.4468667615298
26.5889400565912
25.5372485473675
24.3069164751593
22.9247546442528
21.4249275858961
19.8436560905115
18.2141981719023
16.5630455619384
14.9077719597803
13.2564814186979
11.6085010761833
9.95591228920139
8.28566902985226
6.58227375559522
4.83110707865719
3.02242730519095
1.15576127079313
-0.755996556204715
-2.68379441022556
-4.58204159147726
-6.39144865567278
-8.04526597855537
-9.47825405557187
-10.6369085183953
-11.4889395100788
-12.0299530334478
-12.2857516152654
-12.3095598782156
-12.174561233328
-11.9631257987657
-11.7547692271263
-11.6150616063972
-11.5873950932741
-11.6888342170712
-11.9104086509487
-12.2213748621523
-12.576338244411
-12.9237822612735
-13.2145058723718
-13.4086741378107
-13.4805586541674
-13.420501674009
-13.2341107927781
-12.9391244740528
-12.560734319127
-12.1263619212161
-11.6609260501713
-11.1834782160974
-10.7057455144456
-10.2326598574581
-9.76447547724366
-9.29970491558529
-8.83794402131191
-8.38176089050566
-7.93716581360418
-7.51265519754735
-7.11727987525236
-6.75847630615917
-6.44042161915314
-6.16342562980165
-5.92444752574089
-5.71838156967889
-5.5394647936296
-5.38213667195716
-5.24094260169988
-5.10952531834854
-4.97921681004458
-4.83803645790683
-4.67088315719842
-4.46135514122282
-4.1950437497759
-3.86352641641648
-3.46785914033301
-3.02031637769154
-2.5435034316118
-2.06668262248534
-1.61999598924809
-1.22796501704607
-0.903967453244099
-0.647213113475513
-0.443102887888321
-0.266943840058326
-0.0900821235569238
0.113123080400558
0.359243876318605
0.65209420874111
0.982164421791605
1.32909202787841
1.66633487773657
1.9667692211962
2.20788389103482
2.37554232684924
2.465792401857
2.48473318451151
2.4468374937828
2.37229800334956
2.2839279588767
2.20399602664676
2.15122570150972
2.13813152823894
2.16891775364672
2.23827578845212
2.33148353964582
2.42613336074813
2.49555091457243
2.51355377572953
2.45975529202272
2.32430610732323
2.11092346501878
1.83734985420655
1.5329596643938
1.23394270973902
0.977125721918087
0.793848068319615
0.705268622849615
0.720054696335022
0.834724649950736
1.03619839995342
1.30557805536263
1.62198996403169
1.96550495830089
2.31862228448568
2.66637004044233
2.99553477933404
3.29373300369811
3.54893246329097
3.74969502971796
3.8860039192308
3.95023435234895
3.93775515379364
3.8468351540264
3.67788837295422
3.43246610927891
3.11262134630083
2.72121864313065
2.26343390112124
1.74918883685586
1.19577673554166
0.629650814763209
0.0863935283105057
-0.391719345352179
-0.76050835384835
-0.980296625445308
-1.02267683783132
-0.876192949190888
-0.549684053247507
-0.0725473117196406
0.508157426388946
1.13321064589431
1.73836264216413
2.2619522395591
2.65197552512273
2.87182275835769
2.90419825511752
2.75298059682555
2.44293662436738
2.01730367835146
1.53336746359091
1.05634568856755
0.652148842712994
0.379871825203207
0.2850667189448
0.394845062213598
0.715592429456061
1.23357175509246
1.9180631198046
2.7261198088208
3.60769992116682
4.50998009433727
5.38007603953634
6.16605757863917
6.81683423899478
7.28196062599527
7.51249176579376
7.46366022870435
7.09945444654138
6.39837813834345
5.35903749858913
4.0039620214268
2.38031687078391
0.556848133228995
-1.38268609529197
-3.34848241430563
-5.25438198152812
-7.02650965536485
-8.60945305655441
-9.96926234321762
-11.0933400359583
-11.9879407153465
-12.6743439918513
-13.1847470166519
-13.5586105901054
-13.839734730005
-14.0739084550341
-14.3067119810847
-14.5810104620321
-14.9338476595621
-15.3927455608304
-15.9717386794506
-16.6677293785369
-17.4578878303657
-18.2988192644115
-19.1280888514192
-19.8684463869104
-20.4347441856171
-20.7431118608113
-20.7214792870641
-20.3200953817402
-19.5203812252669
-18.340402473183
-16.8355454736354
-15.0936618697525
-13.2249312535209
-11.3477944853977
-9.57326936381476
-7.99050505999082
-6.65636712433615
-5.59112270181814
-4.78104698427562
-4.18728516766256
-3.75894987339204
-3.44755828128604
-3.21973269112689
-3.06562180688412
-3.00156266147398
-3.06676596697299
-3.31490709427257
-3.80216405820287
-4.57336575259505
-5.64761112445244
-7.00426993047318
-8.57000982123445
-10.2076619606185
-11.7083878294445
-12.7895402918099
-13.1014033457951
-12.2461349597593
-9.81129705416409
-5.41816688750031
1.21820682742506
10.223912775698
21.5059939264765
34.7089545229126
49.1994152006139
64.0875408301686
78.2887422858758
90.6225285839586
99.9384726230223
105.253430303528
105.880656043894
101.531107878038
92.3702583931099
79.0197121989288
62.500917190769
44.1269290930013
25.3561147795906
7.62755657082229
-7.79921874175899
-19.9781958541963
-28.3665684034712
-32.8590566830036
-33.7642178723996
-31.7288854922436
-27.624447325623
-22.4137878986174
-17.0195591792217
-12.2127843235457
-8.53608139598197
-6.26901921390883
-5.43563988864736
-5.84741828713944
-7.17005687477942
-9.00024245181597
-10.9389379428914
-12.6505048617498
-13.9011018625714
-14.5743645179436
-14.6664055458281
-14.2650278527886
-13.5194401428113
-12.6067999005058
-11.700937993589
-10.9471093695148
-10.4449924302751
-10.2407131720481
-10.3275179357188
-10.6538482744087
-11.1369161014259
-11.6793932983734
-12.1865418553241
-12.5811055991451
-12.8136618913968
-12.8669315918473
-12.7536920197108
-12.5092238842405
-12.1803526925698
-11.8138173593209
-11.4467098251041
-11.1010508661302
-10.7833702552384
-10.4887734094978
-10.2077922124226
-9.93366625660856
-9.66775145019193
-9.42146170140307
-9.21427719114249
-9.06854585928984
-9.00270916330936
-9.02495416700991
-9.12906500206945
-9.29353700538101
-9.48407909573897
-9.65875911674275
-9.77448311042821
-9.79335855990373
-9.68774364942645
-9.44328393586521
-9.05978892475385
-8.55023283914824
-7.93838518752301
-7.25559405199328
-6.53713999922002
-5.81845862725459
-5.13147490337717
-4.50132059269901
-3.94377139401362
-3.46376268995468
-3.05525340179813
-2.70248968095723
-2.38242548740811
-2.06778826674245
-1.73014605558633
-1.34240594556223
-0.880442556731336
-0.323925241621626
0.3432615084765
1.13246945557395
2.04919588340818
3.0913931529377
4.24758409976693
5.49557038467616
6.8026423698331
8.12796377349684
9.42724338266882
10.6590788718756
11.7917036959024
12.8085248340402
13.7109565650248
14.5176359241773
15.2599953697201
15.975104275389
16.6973875379289
17.4510758077133
18.2449732800865
19.0704486983427
19.9026951839054
20.7045418157263
21.4316586071928
22.0379715277789
22.4804347801974
22.7228098736796
22.7385460045472
22.5130617783311
22.0456303769903
21.3507454574044
20.4584763282444
19.4131207061769
18.2695840132088
17.0873810620336
15.9228487144346
14.8208482507763
13.8076676784066
12.8868172098945
12.0388951019216
11.2258000157753
10.3985267721352
9.50690586921238
8.50919111670401
7.37949521838984
6.11168349393778
4.71927139464078
3.23185283988209
1.68933541743087
0.135584073673382
-1.38707280896588
-2.84154507632381
-4.19765851877615
-5.43221458451222
-6.52822528829109
-7.47416483436543
-8.263819998275
-8.89688235037249
-9.37998011429995
-9.72755206940413
-9.96191023720818
-10.1120237840664
-10.2109073853294
-10.2918939341874
-10.3843955716441
-10.509927442078
-10.6791584326231
-10.890584802482
-11.1311474881831
-11.3787889637493
-11.6066179014691
-11.7880547492272
-11.9021010136468
-11.9377493623954
-11.8965794350336
-11.7928095593991
-11.6505107547162
-11.4982921428998
-11.3624218529969
-11.2598848342988
-11.1931168317704
-11.1479599421587
-11.0957356667132
-10.9993415457953
-10.8221885248708
-10.5379149825794
-10.1384206380035
-9.63802023274244
-9.07240075279542
-8.49236390198511
-7.95369782804996
-7.50556410171689
-7.18020541147157
-6.98645097623666
-6.9085118847755
-6.91019816924915
-6.94333665173031
-6.95819252478887
-6.91334442925183
-6.78278938441234
-6.5589227935698
-6.25117210025032
-5.88113481278763
-5.47580760850498
-5.06074242444898
-4.65472935681955
-4.26701700008809
-3.89734332631742
-3.5383706019798
-3.17964491889899
-2.81199672348784
-2.43134391630039
-2.04108399944453
-1.65258578127901
-1.28365223456089
-0.955188996246376
-0.686656727431939
-0.491181106171952
-0.371388536159395
-0.317055000324226
-0.305431508023108
-0.304618772017667
-0.279662266513346
-0.200273105890634
-0.0484615851199825
0.175884199521619
0.453185437902453
0.747056608635465
1.0116674188964
1.20213380403826
1.28553254406832
1.24975905859808
1.10781477394493
0.896167981575504
0.66731884182509
0.478212585314962
0.377259320741363
0.393114680442448
0.527938236216203
0.756701903006159
1.03259481144582
1.29709010643022
1.49219833498942
1.57208123844826
1.51157759298113
1.31013075465355
0.990797688863499
0.595119357862697
0.175372341685745
-0.214024685215413
-0.524373910989679
-0.71874722464415
-0.775716803162676
-0.690751678608606
-0.47556641935179
-0.155824475433788
0.232399478398635
0.647015887147064
1.04477715259887
1.38613744001222
1.63960099672307
1.78505580909241
1.81571350689365
1.73850615587762
1.57306248308145
1.34960475502959
1.10618881044422
0.885623353520106
0.732196182476812
0.68811531207292
0.789475406222367
1.06168183789665
1.5146153318074
2.13829918290617
2.90025001872853
3.74583701373868
4.60268426058839
5.38939702841279
6.02781035045994
6.45682800026025
6.64509114209962
6.59949877395804
6.36715864006459
6.02962207424944
5.68997158572228
5.45505298448769
5.41640696240165
5.63389431448821
6.12547586939749
6.86521921675516
7.78971174723102
8.81115184230203
9.83395312466909
10.7710785012499
11.5566403970199
12.1524298061945
12.547638534864
12.752688408625
12.7893744641971
12.6801885638816
12.4396200527436
12.0695182728072
11.5594711782162
10.8918918620792
10.0503882713839
9.02923537299807
7.84149789097448
6.52359592115423
5.13481170512794
3.75127971905222
2.45520308124679
1.32117521192362
0.402319561070986
-0.280720074040949
-0.745235899143263
-1.04464330320857
-1.25917629222951
-1.48056665924418
-1.79368763558218
-2.25905659332629
-2.9001260982561
-3.69836700018684
-4.59743200656284
-5.51558075211767
-6.36357625039399
-7.06394495739244
-7.56718623403838
-7.86131209803732
-7.97278537196785
-7.95905047164983
-7.89484838517211
-7.85585692927502
-7.90357617427401
-8.07474575714582
-8.37717530626057
-8.79212752435082
-9.28180977427538
-9.79950942320735
-10.2996572797457
-10.745589486643
-11.1137647163287
-11.3943341306547
-11.5889172352822
-11.7069760277768
-11.7622318529115
-11.7702177283248
-11.7474860127205
-11.7123992930158
-11.6869720167923
-11.6989631747275
-11.783323784392
-11.9821113285213
-12.3420422613692
-12.9089625879054
-13.7187387062152
-14.7845051127016
-16.0809293220822
-17.5271586965089
-18.9712601889533
-20.1799815289913
-20.8381964322083
-20.5620993389238
-18.9288574502084
-15.5229979585388
-9.99657036499195
-2.13660935101838
8.06964785367661
20.3831986903465
34.2867931514611
48.9927878541191
63.4903079994524
76.6308192484532
87.2446754094742
94.2751624437509
96.9121820563732
94.7059705096545
87.6426715398648
76.1681681643689
61.1537410198378
43.805776195533
25.5304818651803
7.77188879294516
-8.1540218282348
-21.2053000558946
-30.7193676586286
-36.4634843685595
-38.625031822353
-37.7460488629268
-34.6152267106905
-30.1367654086002
-25.1980035505182
-20.5562188044627
-16.7599448681291
-14.1127575496265
-12.6793641959165
-12.3266393177997
-12.7873001457428
-13.7319163767672
-14.8358963804281
-15.8313570440819
-16.5383339057622
-16.8744856029915
-16.8463321423283
-16.5275490156
-16.0307608048288
-15.4788540682652
-14.9805042317353
-14.6128865662011
-14.4128340412722
-14.3762709277356
-14.4646834643711
-14.6166708891761
-14.7621988170254
-14.8370218404845
-14.7948649822466
-14.6153861519186
-14.3066890880974
-13.9021512876251
-13.4524172988583
-13.014361258574
-12.6394134698766
-12.3637113923784
-12.2020411612563
-12.1465978912598
-12.1704516010617
-12.2345556479811
-12.2964383426012
-12.3185286567992
-12.274386994393
-12.1518049702698
-11.9525796660509
-11.6895219864923
-11.3817499689064
-11.0494749364003
-10.7093482262791
-10.3711113550909
-10.0359176804823
-9.69637447288509
-9.338136684242
-8.94275334090638
-8.49137598095436
-7.96884138037731
-7.36752907066388
-6.69030529960007
-5.95186772015812
-5.17796445611979
-4.40230082447284
-3.66142401975734
-2.98838249810562
-2.40634871704577
-1.92353892047571
-1.53058937748835
-1.20107319792603
-0.895175396596862
-0.56585693485427
-0.16631044288064
0.342726156652792
0.987130717488014
1.77597717501792
2.70093071868942
3.73829963974955
4.85316091116882
6.00475302475418
7.15230348325689
8.26056500951028
9.30448530787879
10.2725597510115
11.168493017338
12.0108573173315
12.8305477622517
13.6660607091029
14.556974538719
15.5364421844221
16.623896070463
17.8193759198503
19.1007989136626
20.4250550561962
21.7330870181483
22.9582602612564
24.0365608600283
24.9166843886051
25.5680374936224
25.9850860805107
26.1872476205326
26.2144440677515
26.1192776801271
25.9573717586516
25.7776277319677
25.6139940778951
25.4799186266098
25.3661085470184
25.2416896326932
25.0584270820549
24.7573679519336
24.2770648442952
23.5623994829881
22.5729229668357
21.2895876894575
19.7188213208742
17.8931488697817
15.868032269696
13.7152271927012
11.5136365523792
9.33920045011014
7.2556338377273
5.30769641774801
3.51815089139554
1.88875166416266
0.404714671388841
-0.958610766789299
-2.22851995246977
-3.428759927613
-4.57547363892284
-5.67568459366723
-6.72801560989594
-7.72483358651786
-8.654847808531
-9.50536791548739
-10.2638371238273
-10.9187133864969
-11.4600920502206
-11.880531490172
-12.1763488159456
-12.3492928400601
-12.4081378408075
-12.3695364168979
-12.2575225186083
-12.1013658699111
-11.9319467738437
-11.77728572999
-11.6581655488543
-11.5848235568598
-11.5554599077479
-11.5568877880195
-11.5671801490598
-11.5597836983305
-11.508362590861
-11.3916139977668
-11.1974094610056
-10.925771329167
-10.5903195903663
-10.2179005303677
-9.84617600606898
-9.51908974320669
-9.28040454653522
-9.16593212337982
-9.19557808501538
-9.36674226586801
-9.65076087108466
-9.99380396697511
-10.3229099336267
-10.5567553260215
-10.6195685209169
-10.4556188804274
-10.0412520125723
-9.3916825700114
-8.56070236736957
-7.63292015283352
-6.70977672130267
-5.89197491955454
-5.26178245539657
-4.86870917970633
-4.72133133334845
-4.78672552157935
-4.99740752610694
-5.26420680601539
-5.49245312656083
-5.59839019152631
-5.52289474356358
-5.24026570795307
-4.76086599403652
-4.12752954654947
-3.40668935722558
-2.67599073921423
-2.01063881823965
-1.47085033905427
-1.09253584166381
-0.882759859072255
-0.820681750688646
-0.863681467153144
-0.957383889881356
-1.04750528954755
-1.09104340758336
-1.06444843963144
-0.967066915624466
-0.819228071744206
-0.655600028966933
-0.515565535047021
-0.433052323979963
-0.428305662797987
-0.503488746073337
-0.642909371632061
-0.817414216585999
-0.991432113191124
-1.13058847932893
-1.20789716475517
-1.20720010056225
-1.12352342598377
-0.961007781367958
-0.729726540984484
-0.442833916952875
-0.115081170942822
0.237014717270616
0.593872853674237
0.931501551857885
1.22129160216271
1.43176646999343
1.53239935302731
1.49882737416508
1.31822079937442
0.993396677316839
0.544547951997516
0.0080777381177583
-0.567238660710772
-1.12593901009844
-1.61228589017637
-1.97634312553389
-2.17898243874699
-2.19550632116556
-2.01790071114224
-1.65584715139684
-1.1365240883802
-0.503017817537987
0.188986262699194
0.87649862148179
1.49643188192242
1.9940831874319
2.3316521934009
2.4951340345179
2.49789318630133
2.37967212224671
2.20066125340701
2.03135270460241
1.93993182472174
1.97963971550427
2.17867019237888
2.534698099704
3.01518722408745
3.56343302875743
4.1091458157647
4.5815288633298
4.92241189023846
5.09709679729351
5.10108248967877
4.96161202747997
4.73386430563518
4.4924532841597
4.31960102706789
4.29185295422934
4.4674598778863
4.87652165022554
5.51563885094803
6.34814690491748
7.3100637127835
8.32079862229881
9.29665414598044
10.1644474468965
10.8724047697762
11.3959563359097
11.7371418306991
11.9178147787835
11.9683605131984
11.9148210267441
11.7678163847443
11.5162957189009
11.1279939449195
10.5567869920803
9.7553550957365
8.69014495131715
7.35494075977691
5.77959015522367
4.03151959837776
2.20932969365696
0.429561091168174
-1.19077513493669
-2.5524438462714
-3.58948242446843
-4.27910178522517
-4.64435406930667
-4.74934991408381
-4.68812686424453
-4.569250580567
-4.49875415494541
-4.5640859884177
-4.82142106428721
-5.28810295984478
-5.94122560490284
-6.72251244390137
-7.54877058775913
-8.32636271647015
-8.96745226368729
-9.40536683121433
-9.60641851031969
-9.57599706162856
-9.35769603746253
-9.02550456584493
-8.6704510095353
-8.38421551367823
-8.24285830936778
-8.29377015489795
-8.54823698509768
-8.98079413478453
-9.53512801484004
-10.1350110290783
-10.697920527373
-11.1487517450293
-11.4313747079187
-11.51654096807
-11.4055645184087
-11.130024945359
-10.7482833499162
-10.3397893961775
-9.99803056473298
-9.82264964020867
-9.91087799389382
-10.3481273472804
-11.1974384016092
-12.4875489648798
-14.199639960044
-16.2533526800503
-18.4934290019196
-20.6792399606954
-22.4803812197751
-23.4821641606345
-23.2048732145754
-21.1397442737634
-16.8025173569752
-9.80216028339997
0.0816604026109244
12.8228084644043
28.088059297694
45.2060184300204
63.178031567999
80.7385055827695
96.4644096148906
108.924684481411
116.851616556861
119.309852838973
115.836278533654
106.526365144816
92.0497577457354
73.588705310709
52.7055155704128
31.1571688491747
10.6842534628597
-7.19425751775149
-21.3500104442666
-31.1540692083164
-36.5118988353206
-37.8232992214642
-35.8781148736109
-31.708142868453
-26.4212080303753
-21.0441330015671
-16.3975004562516
-13.0177195106648
-11.1325773850142
-10.6870113383257
-11.407961701358
-12.8921031518018
-14.6985992046446
-16.4306976197026
-17.7942924945462
-18.6274194073438
-18.9007564013671
-18.6944026252172
-18.1596349025191
-17.475585065444
-16.8099073042902
-16.290005231486
-15.9880258895638
-15.9194443283916
-16.052383188501
-16.3232955823875
-16.6544049376098
-16.9691376987851
-17.2032723724087
-17.311146948045
-17.2675677615826
-17.0667758709449
-16.7199066273546
-16.2519793998157
-15.6988512282392
-15.1040458728867
-14.5151282670343
-13.9793919557461
-13.5389783452152
-13.2259706617668
-13.0583031928975
-13.0373569457794
-13.1478439097518
-13.360096331361
-13.6343365627685
-13.9260846652068
-14.1916924134678
-14.3931068343471
-14.5012962583171
-14.4981802143394
-14.377241635221
-14.143161546549
-13.8107815437409
-13.4035324982123
-12.9512870016894
-12.4875157919286
-12.0457198213891
-11.6553521337524
-11.3377421790975
-11.1027552094095
-10.9469432288244
-10.8537216156704
-10.7956797870228
-10.7386292691732
-10.6465696136011
-10.486550651527
-10.2324931756079
-9.86736569655862
-9.38358411689411
-8.78194598729651
-8.06969269238611
-7.25834171362697
-6.36176802550144
-5.39473633719206
-4.37182521091692
-3.30654942174657
-2.21052186075074
-1.0926627356362
0.0413393241114953
1.18900092579372
2.3502003657587
3.52550175587014
4.71396420331362
5.91104423708768
7.10730861835374
8.28851920994454
9.43724863483792
10.5356560919285
11.5685850709871
12.5259268906572
13.4033408384569
14.2009235954803
14.9201350553257
15.5599796027996
16.1138612992157
16.5685012012328
16.9057890608926
17.1075668465738
17.1623647151707
17.0723388092972
16.8583534960945
16.561432617281
16.2396208717466
15.9604291598514
15.79017088075
15.782314547486
15.9672627387716
16.3456584111749
16.8865261803574
17.5305133352132
18.1974840099986
18.7969794784562
19.2397202807428
19.4483937871774
19.3663378700328
18.963238921536
18.2374631033781
17.2150449241715
15.9456523533044
14.4960722726642
12.9419663031029
11.3588569317097
9.81348585213399
8.35676251759619
7.01940180692468
5.81098280567919
4.72256931994355
3.73232775749956
2.81293377861856
1.93915996150925
1.09401303244741
0.272167398133426
-0.519871785039766
-1.26663581033892
-1.94864500944886
-2.54808515636317
-3.05380780828265
-3.46456623083261
-3.78993103634872
-4.04890626297219
-4.2667272998308
-4.47057548974656
-4.68498776247677
-4.92764194256845
-5.2060549183617
-5.51561332365744
-5.83927884688557
-6.14922729987991
-6.41051780599838
-6.58659176103014
-6.64598121838147
-6.56915636506472
-6.35411729186685
-6.01929957001132
-5.60271840549138
-5.15700780331366
-4.74097011952121
-4.40918546433586
-4.20185848680751
-4.13718462878595
-4.20802403069182
-4.38368222311369
-4.6163715811308
-4.8508052405425
-5.03466989200833
-5.12762596148667
-5.10700056423672
-4.96929540580727
-4.72773147806781
-4.40697427528427
-4.03668545848134
-3.64553771459958
-3.25688437872665
-2.88659597987058
-2.54290955963608
-2.22768670530989
-1.93833673258241
-1.66979833971193
-1.41625569945331
-1.17253164811204
-0.935229971367154
-0.703657747153603
-0.480409018116808
-0.271353312645761
-0.0847648183347874
0.0704937267940334
0.187492373287303
0.263869271632878
0.303770422139756
0.318325068089291
0.324222915878385
0.340508182472296
0.384293315231754
0.466513798365124
0.588931083089713
0.74328954013745
0.912927736440328
1.07642834438455
1.21230308889329
1.30344636994128
1.34023692051445
1.32165972299302
1.2544769359974
1.15105942480564
1.02679683754194
0.897940920615936
0.780353741753439
0.689101041716029
0.638376181434244
0.641052901391598
0.707327379362848
0.842362716535476
1.04341376636885
1.29735776452954
1.57969384675558
1.85582070648284
2.08481887358202
2.22523820906088
2.24176473700328
2.11132569213936
1.82729300474764
1.40092605873269
0.859890669008028
0.244374411067995
-0.398220750847167
-1.01890589175597
-1.57215502006996
-2.0198839418435
-2.33428187074905
