-6.92708253314122
-7.54336253105192
-8.10297308631664
-8.54856785364537
-8.82579707279945
-8.89308274102331
-8.73519021667501
-8.37488423934435
-7.87602311953379
-7.33376150604754
-6.85240512145964
-6.51694953760491
-6.36796740564477
-6.38937088935861
-6.51435510909385
-6.64812867017272
-6.6996591739141
-6.61126783879453
-6.37585093423614
-6.03632112251621
-5.66852353937113
-5.35470099054077
-5.15738644732384
-5.1026043376052
-5.17719342914814
-5.33964385254418
-5.53906597573932
-5.73440886092016
-5.90656446016935
-6.05915408458123
-6.20831639456356
-6.36606295034155
-6.52431197178682
-6.64673743008078
-6.67303662054184
-6.53582087416645
-6.18538269075247
-5.61380714988178
-4.86892741982181
-4.0512966440106
-3.29302433520664
-2.72395458744903
-2.43563430812606
-2.45483486277409
-2.73548412306401
-3.17174490599353
-3.62781944668887
-3.97447887504309
-4.12039812992818
-4.02880434529188
-3.7156768574491
-3.23246476518532
-2.64144691859302
-1.99362761601197
-1.31697363355414
-0.617842217725597
0.107307452531403
0.857016751307241
1.61477745204821
2.34926448243049
3.0253419931153
3.6211424100967
4.14328415654193
4.63248722677762
5.15554456484655
5.78533447874607
6.57587131246836
7.54199129004775
8.65201987336336
9.8371016688288
11.0145677099565
12.1171829954427
13.1174972539041
14.0378739349363
14.9417157317534
15.9082630052263
16.9996724108204
18.2324679746097
19.5643943828334
20.9023256180467
22.1291151132396
23.1401541376555
23.8767502593734
24.3445782479445
24.6107981935737
24.7809272501194
24.9635361286373
25.2349138687785
25.61560653908
26.0663019253754
26.503538268923
26.8287459213056
26.9597391099545
26.8534776238793
26.512644577795
25.9748100225223
25.2893465369013
24.4915673609482
23.5843291467131
22.5344015661548
21.2853349655189
19.7823018556122
17.9996469660875
15.9604213550454
13.7397039227656
11.449282926977
9.20820936764228
7.10918424396328
5.19252914415067
3.43685785700564
1.76956038582049
0.0932753263191115
-1.6806021187568
-3.60188441791281
-5.66337917672642
-7.79824638390344
-9.89154187435092
-11.8007209048331
-13.378469896697
-14.4924208382421
-15.039202579176
-14.953349729489
-14.2133358103275
-12.8467275111097
-10.9345660583074
-8.61275530279528
-6.0667975406513
-3.51654968070093
-1.18995868059892
0.711549134783834
2.04935820575473
2.77625486696983
2.94797885027931
2.71188618545168
2.27320019786339
1.84648020062192
1.60520672792843
1.64358484326054
1.96120753117613
2.47430325890433
3.0492786458078
3.54772625136626
3.86898481044516
3.97763062244254
3.90853482277984
3.74962068414653
3.60962308141143
3.5824951979715
3.72023655287335
4.02206511510191
4.44164478326524
4.90779251701839
5.34987460903539
5.71831445916523
5.99341788174862
6.1809132527947
6.29808873638847
6.35795133360346
6.35906925284661
6.28578644456242
6.11870611800323
5.85069840535256
5.50096554581948
5.11993776602337
4.78103066656726
4.56055432011038
4.51237630878402
4.64699926114855
4.92387736672188
5.26108278333
5.55974059764017
5.73487852526624
5.74190223858837
5.58964357782003
5.33592742705806
5.06780487189648
4.87368891851445
4.8168818400567
4.91882199229428
5.15645689618964
5.47303191550523
5.79716488767339
6.06289830450994
6.22409694501787
6.25957722409888
6.16934749396456
5.96568475047194
5.66423114422482
5.27941445726387
4.82574481763023
4.32315842766781
3.80216152407716
3.3043051526606
2.87568808990376
2.55473997582147
2.35877838520027
2.2751933231291
2.2618661871173
2.25800194257999
2.20233773167971
2.05246906185926
1.79820094908833
1.46378856589258
1.09795280902423
0.755120155687405
0.474709495560758
0.266150494259651
0.105282104962916
-0.0564106534777733
-0.273012870961443
-0.582640192599941
-0.990896434097856
-1.46524437348944
-1.94236920362145
-2.34619728484542
-2.61069688127558
-2.70001113873169
-2.61932219579967
-2.41288129454153
-2.14996383167967
-1.90374369015433
-1.73072084295024
-1.65824345773201
-1.68460148995569
-1.79110133624902
-1.96044911577178
-2.19288828441801
-2.51222431951214
-2.95795233931317
-3.56556153109691
-4.34238471431359
-5.24896924531012
-6.19474060512487
-7.05200905766326
-7.68579163378765
-7.99091499234206
-7.9246707932391
-7.52408180669888
-6.90132521422518
-6.21755540197957
-5.64214866573227
-5.30914908086136
-5.28387485320835
-5.54966528015774
-6.0183243971656
-6.56001329600774
-7.04200078454368
-7.36323794066535
-7.47406698740128
-7.37647166948427
-7.10767418320661
-6.71574188704555
-6.23801684196872
-5.69091202438581
-5.07397862612276
-4.38458674550485
-3.63490081442859
-2.86201102685629
-2.12534002701344
-1.49130895469433
-1.0111989983707
-0.701622060096063
-0.536467354612231
-0.45477387670257
-0.382485471668105
-0.26011496078626
-0.0653919434037056
0.17869733525063
0.414744317158649
0.577478081208311
0.626301699748516
0.571000540045569
0.479639501454313
0.46374287359757
0.643983264978267
1.10693093424495
1.86734881531981
2.84952541297896
3.89528325874128
4.79745206893165
5.34895104686171
5.39247151079617
4.85599893700767
3.76477449163673
2.22851259282581
0.410550985820139
-1.50972457592196
-3.36969966878592
-5.04393157961054
-6.45027315001854
-7.54524285859204
-8.31516885457172
-8.76939382253298
-8.93878826491883
-8.87853475180003
-8.67065573865517
-8.42073927236886
-8.2453175425807
-8.25052946806407
-8.50722712252547
-9.0305751235169
-9.77207277048389
-10.6285743447162
-11.4673591881589
-12.160644691725
-12.6193423966319
-12.8157381256735
-12.7881812936289
-12.6265759579437
-12.4435315073037
-12.3404671448626
-12.3793610538751
-12.5687694853304
-12.8678770099664
-13.2062222525889
-13.5113866833573
-13.7342598591803
-13.8626560355147
-13.9188193844574
-13.9429447791407
-13.9705665088563
-14.0141018905565
-14.0569388321196
-14.0630500836004
-13.9985203944804
-13.8563426113763
-13.6743345121336
-13.5384332952553
-13.5687697563708
-13.8917606126255
-14.6059388976166
-15.7509892197928
-17.2880260927784
-19.0950777095901
-20.9764489771724
-22.6801517516663
-23.915760375921
-24.3667227162323
-23.6957544599497
-21.5476894398204
-17.5587312231557
-11.3823667020686
-2.73906544310842
8.51057259199221
22.2796820090403
38.1761754160029
55.4565855693108
73.036277011859
89.5689848677451
103.591668164788
113.712529426013
118.807096368135
118.18424059527
111.69174976335
99.7459931308466
83.2862804181521
63.6664599797457
42.5021160319415
21.4928131763753
2.23823989568245
-13.9329030734461
-26.1018255559833
-33.8477078030936
-37.2705881678118
-36.9434207336151
-33.7991605314022
-28.970353568307
-23.6076291635276
-18.7077469140564
-14.9804795323083
-12.7765370075873
-12.0868464874792
-12.6088896130736
-13.8616671040101
-15.3208116937652
-16.5422728664104
-17.2478925780481
-17.3577445315307
-16.9689101446322
-16.2940486495748
-15.5818564513568
-15.0432171525338
-14.8017015793282
-14.8773188994754
-15.2014968728148
-15.6526501845883
-16.09772243252
-16.4263290317811
-16.5693947613086
-16.501092402836
-16.2288084636005
-15.7788556262324
-15.1851173374464
-14.4845206515148
-13.7188654874551
-12.9389732810828
-12.2057942574681
-11.5845559169234
-11.131639826218
-10.8780628785762
-10.8162654531824
-10.8968939738861
-11.0390942746804
-11.1525926722364
-11.1646815396053
-11.042472914471
-10.8018504030104
-10.499202879199
-10.2084408477268
-9.99137891158187
-9.87209428170283
-9.82444199570671
-9.77722968339073
-9.6354843453424
-9.31092257809973
-8.75181510819352
-7.9626736068697
-7.00738545809697
-5.99455908386971
-5.04934138805679
-4.28012267381026
-3.75003494867408
-3.46149126923285
-3.35775055787627
-3.34005872053195
-3.29417618422615
-3.11768021199019
-2.74008112698529
-2.13108725985748
-1.29688914884309
-0.268349810761763
0.912918138442079
2.20500260641799
3.56958051700857
4.96962875425212
6.36435741247445
7.70609367548244
8.94291278339327
10.02797768271
10.9330312605371
11.6608684382056
12.2511193677107
12.7756211787432
13.3233743565163
13.9791743858045
14.8028269701041
15.8160913427212
17.0018037353023
18.3149472136333
19.7007115911209
21.111939044815
22.5189875377545
23.9086584441993
25.2737936465953
26.5993192809017
27.8521929460586
28.9811956532624
29.9282831104525
30.6478598382771
31.126113244593
31.3914523225405
31.509890504067
31.5649274763317
31.6278450743394
31.728763061281
31.8394830693078
31.8756828179474
31.7195184697463
31.2563708310162
30.4139513003461
29.1904141258101
27.6613237505602
25.9623143087446
24.252525441297
22.6703487834632
21.2953758767344
20.1280620556535
19.0926246312479
18.0613082317323
16.8918171542106
15.4663334183174
13.7209916413329
11.6585927934507
9.34317377249105
6.88069326431877
4.39369792411244
1.99842541763803
-0.209564507807922
-2.15948470617433
-3.8020048021951
-5.10429183019332
-6.04901132544404
-6.63972065824844
-6.91047277419961
-6.93371717089387
-6.8196803907086
-6.70298705732568
-6.7173989751074
-6.96503478370515
-7.48984185295471
-8.26482224814045
-9.19850015131685
-10.1597800134336
-11.0139739250515
-11.658718427907
-12.0483476035067
-12.1992461581453
-12.1753999953078
-12.0602988719922
-11.9259089428588
-11.80995212685
-11.7091121845322
-11.5894959841597
-11.4091430896186
-11.1430689559686
-10.8007987917167
-10.4296366165777
-10.1025874473927
-9.89566245041603
-9.86308300107653
-10.0193528444119
-10.3342694992335
-10.7419569693136
-11.1599581725636
-11.5112739722992
-11.7420085588241
-11.8297487008027
-11.7817235197176
-11.6255174451039
-11.3972579200503
-11.1321286172098
-10.8600331747143
-10.606256251186
-10.3943668692592
-10.2475272011352
-10.1853153173377
-10.2157802320433
-10.3255738185909
-10.473149557956
-10.5900155719564
-10.5926264612168
-10.4034962624768
-9.97602850568417
-9.31502867869545
-8.48504725406874
-7.60181928703437
-6.80724860631325
-6.23391127023244
-5.96897809986095
-6.0283615681665
-6.34938615843703
-6.80505237503076
-7.2365358648561
-7.49489933033653
-7.4799554903968
-7.16491916107406
-6.59983006002235
-5.89336498381168
-5.17940073944621
-4.57925400958364
-4.17135791882366
-3.97701491808395
-3.9649984365261
-4.07132537106806
-4.22577493776093
-4.37525786328432
-4.49626532867431
-4.59336641004238
-4.68621214687052
-4.79171788445288
-4.90956231179616
-5.01742312901474
-5.07818166772075
-5.05627922143217
-4.93642395321298
-4.73649932782385
-4.50844997293795
-4.32551136774697
-4.25966645145653
-4.35739695568516
-4.62282545854833
-5.01469666785573
-5.45840696765432
-5.86863820331446
-6.17433915045052
-6.33723790773792
-6.35788091038219
-6.26821208271847
-6.11488922149701
-5.94078265770801
-5.77216802456605
-5.61615793461577
-5.46831741858688
-5.32610665426121
-5.20139818496901
-5.12561667501702
-5.14395652937317
-5.29970456947851
-5.61424709288732
-6.07094802439947
-6.61044014140568
-7.14098572296512
-7.56187247294042
-7.79260205859602
-7.79802496310916
-7.60060689223885
-7.27526409382693
-6.92810011250267
-6.66581684321111
-6.56566986184494
-6.65552594332109
-6.90995183472332
-7.26256735863183
-7.62919534205052
-7.93282085895477
-8.12145437707981
-8.1736355877171
-8.09190967338378
-7.88965147559567
-7.57888731285535
-7.16539365701031
-6.65314808715045
-6.05519953581271
-5.40449909820763
-4.75774130947645
-4.18800799105967
-3.76682643680533
-3.54117125212689
-3.51391766192727
-3.63594692259363
-3.81442740544061
-3.93608094227236
-3.89872546005148
-3.64116564095051
-3.16167980328968
-2.51878575178688
-1.81355620242484
-1.15877515721075
-0.644722339890906
-0.3127076097931
-0.144989598308908
-0.074119725217183
-0.0080103658211783
0.13838833908417
0.415994994065443
0.828256853708076
1.33537424780332
1.87322532779139
2.37869810095423
2.81106122942925
3.16104049808553
3.44449907675017
3.68389843787681
3.88561397433542
4.02293761486115
4.03266901447832
3.82826985383305
3.32628023598601
2.47723614075526
1.28978166059573
-0.161682509183659
-1.74990266668316
-3.32482818282836
-4.75100933007849
-5.93979539075751
-6.86577630179652
-7.56273136705198
-8.10169963981025
-8.55990756412764
-8.99199739457367
-9.4134352662272
-9.80087263111087
-10.1076538010975
-10.2872159843351
-10.3148777066805
-10.2000984499528
-9.98575025295243
-9.73622481574996
-9.52012785130741
-9.39449122889911
-9.39573086387043
-9.53902428582749
-9.82403381826663
-10.2425219581028
-10.7832372946952
-11.4313543288999
-12.1627906455447
-12.936618752014
-13.6903980882513
-14.342910694454
-14.8064563660909
-15.0071849722842
-14.9081359679728
-14.5272094904912
-13.9424417392233
-13.2801394723755
-12.6869705217748
-12.2932319665848
-12.178817496612
-12.3537995852851
-12.7613398666509
-13.3030634186519
-13.8788109903074
-14.4269460192481
-14.9504128637501
-15.5180624297981
-16.2389668651673
-17.2166301920373
-18.496825660989
-20.024789636401
-21.6240867375569
-23.002098480326
-23.7786297080557
-23.5277134041523
-21.8207036229854
-18.2619838129861
-12.5158023562515
-4.33059336502567
6.42856904873749
19.7312188632362
35.3178447234691
52.6359797733966
70.8015615009292
88.6134535811357
104.639676711461
117.374683331028
125.44463271033
127.820794116112
123.9963663949
114.090160410171
98.8574296249385
79.6071073009304
58.0406316806644
36.0382812650519
15.4247850728378
-2.25211789182069
-15.8982571639536
-24.9789084549317
-29.539063377565
-30.1380081082457
-27.7137735962285
-23.405293134063
-18.3657001474308
-13.5982551356317
-9.83847754809383
-7.49496580245638
-6.64986671628576
-7.11010864335081
-8.49367288037005
-10.3318994085425
-12.1689357967098
-13.6422722159103
-14.5330659082628
-14.7809914066506
-14.4650532371801
-13.7582940142884
-12.8693682086897
-11.9861850647805
-11.2353536567774
-10.6660417750542
-10.2593442199584
-9.95659400072407
-9.69474497636516
-9.43577838316119
-9.18035790381679
-8.96242587253963
-8.82873350861341
-8.81278049859207
-8.91429966909011
-9.09267400773449
-9.27666543765667
-9.38608038903025
-9.35631572180271
-9.1559720341662
-8.79100309396209
-8.29466396787419
-7.70840872662638
-7.06252478173615
-6.36525589973251
-5.60547252535056
-4.76802926701421
-3.85514979842915
-2.90389889471571
-1.99053473799104
-1.21719840010962
-0.683304823201855
-0.450506503115797
-0.513621231362787
-0.788927747128901
-1.12591762601682
-1.34080023665762
-1.26259859974674
-0.778221881690927
0.137007630139417
1.41238431009242
2.9001339789271
4.41314984455162
5.77077212065592
6.83942005202494
7.55724265148694
7.93764336706392
8.05354117044273
8.01002509739274
7.91563976144369
7.86127818675742
7.91142951630843
8.10718354073519
8.47599404619487
9.04131011543954
9.82632890817324
10.849622559158
12.1146590743316
13.5984716450182
15.2456453567559
16.9720616081464
18.6791685427055
20.2753608256697
21.6979739036639
22.9286189886955
23.9964311062124
24.9676635111178
25.9246552188133
26.9409618632776
28.0609449552659
29.290560072183
30.6018101701469
31.9479542744
33.2823748310873
34.5728502255272
35.8053394367035
36.9762220350996
38.0771911612529
39.0804759484091
39.9323294785578
40.559612029218
40.889005056061
40.8729617315827
40.5130772841304
39.8715267716592
39.0646636215663
38.2386423417818
37.5330786524207
37.0431941028274
36.7920162625807
36.7214798680276
36.7054847983198
36.5810469684503
36.1880617357779
35.4059070706026
34.176928030002
32.5119307275524
30.479039724533
28.1821717748261
25.7372831678922
23.2532317480724
20.8206460147634
18.508342875198
16.3641732390391
14.4165741018565
12.674484562871
11.1257285434667
9.73616565301533
8.45271917088879
7.21231872564338
5.95623606270457
4.64636775809133
3.27809647936616
1.88444414569233
0.528521068756756
-0.714887226678743
-1.78365947301772
-2.65083611068382
-3.3371959781484
-3.90852081543142
-4.45717261788426
-5.07323833446274
-5.81461172344978
-6.68632787828243
-7.6367290365849
-8.57244446192706
-9.38760497270316
-9.99752560938587
-10.365241151676
-10.511591634819
-10.5053329701254
-10.4369512930231
-10.3858090863382
-10.3926554038842
-10.4474425984679
-10.4966331124379
-10.4670153233583
-10.2971917963842
-9.96538624416017
-9.50369896512458
-8.99371892472517
-8.54481651687142
-8.26238036132921
-8.21669488645363
-8.42280898541933
-8.83770977621943
-9.37494851433109
-9.93095920011145
-10.4138037219587
-10.7649842822398
-10.9679879628797
-11.0421619747558
-11.025741428321
-10.9556665892842
-10.8527977183313
-10.7186371402244
-10.5444362088621
-10.3277097240815
-10.0873582992842
-9.86871998151844
-9.7341115453689
-9.74105864984108
-9.91655630296856
-10.2385467984109
-10.6339070790553
-10.9961704141138
-11.2183301533744
-11.2295744402567
-11.0223920170614
-10.6592937926687
-10.2554889897223
-9.94263482868636
-9.82595067263564
-9.94978241603256
-10.2839269717718
-10.7355895909288
-11.1825033319822
-11.5150578166737
-11.6722159615526
-11.6586662993996
-11.5379094139918
-11.4049037935374
-11.3491006762007
-11.421658216253
-11.6185406783316
-11.8850657877494
-12.1395393765097
-12.3067032989714
-12.3482489258025
-12.2788591857065
-12.1617100497856
-12.0850816815916
-12.128825294546
-12.3332406110574
-12.6820060089884
-13.1055194638739
-13.5033864315146
-13.7777852176636
-13.865732017587
-13.759143929351
-13.506469510489
-13.1964292752367
-12.9304633660178
-12.7937360241353
-12.8341135104522
-13.0548654269265
-13.4214788353944
-13.8780246411983
-14.3658550737741
-14.8378772701757
-15.264674580989
-15.6327227855044
-15.93807654412
-16.1800361526141
-16.3583183625611
-16.4748640514609
-16.5387352140095
-16.5706894276918
-16.6037654196718
-16.6777782370249
-16.8284446291556
-17.0747259301029
-17.4095359064287
-17.7983708533309
-18.1877472907655
-18.521549842253
-18.7599916616322
-18.8942890656092
-18.9511152589526
-18.9842399689156
-19.0554037628041
-19.210764161754
-19.4614847242128
-19.7761475944416
-20.0887649551554
-20.3205929885378
-20.4087704868578
-20.3319532122572
-20.1236903928851
-19.8681662752779
-19.6788081769195
-19.6661161234104
-19.9048565936162
-20.4111443257868
-21.1367359341276
-21.9821548831901
-22.8240612163648
-23.5477799046241
-24.0746654770229
-24.3763215378461
-24.4726220405615
-24.4161396949186
-24.2699515278992
-24.0873613469244
-23.9003812876324
-23.719632123413
-23.543462497598
-23.3705943098138
-23.2097770553742
-23.0818457693349
-23.013263019189
-23.0241926598093
-23.1168361504023
-23.2699817595097
-23.4431764862896
-23.5895177632493
-23.6716698008717
-23.6734889800532
-23.6009318765014
-23.4704225228042
-23.2886557157557
-23.0322948770704
-22.6371427976055
-22.0035352613384
-21.0189469239281
-19.592243185842
-17.6890968407051
-15.3566612210268
-12.7282516232381
-10.0046893884679
-7.41613699201721
-5.17429839628638
-3.4277983402756
-2.23252218697493
-1.54418406271304
-1.23397038848163
-1.12185075670689
-1.0179344253572
-0.761148588387532
-0.246496825554599
0.56375362574938
1.64487470251977
2.92643209275592
4.31471895082227
5.71439049032556
7.04438652594163
8.24592888259008
9.2833299878557
10.1405183869092
10.816698403887
11.3232291877663
11.6814932331646
11.9197584494251
12.0670277809369
12.1436671243938
12.1511143215998
12.064738314355
11.8339639869221
11.3919771448106
10.6742472162583
9.64173549351217
8.30215116545543
6.72200955740876
5.0240491165503
3.36847812706359
1.92145285725263
0.818549345540383
0.133219031696113
-0.140633888640778
-0.0866514501432863
0.155057137762225
0.422108601665263
0.56744871075071
0.49000656525899
0.15062763740015
-0.429587128244705
-1.18586140834261
-2.03419655296294
-2.89485992965342
-3.70743673927583
-4.4340294967861
-5.05243553197568
-5.54543327498504
-5.89371709147389
-6.07773980262081
-6.08865843846347
-5.94308174960134
-5.69311884633617
-5.4241022363393
-5.23721120953863
-5.22105243431495
-5.42201370559855
-5.8251628410922
-6.35445658475226
-6.89403087124848
-7.32413178429757
-7.55925204916991
-7.57487121009378
-7.41342274526429
-7.16795572095693
-6.95016750955801
-6.85485033983666
-6.93348927028259
-7.18582592900079
-7.57130240795696
-8.03495655426429
-8.53713829037749
-9.07513541655916
-9.68778827907748
-10.4402610142017
-11.3930987712276
-12.5650800826385
-13.9013071890648
-15.2557981125747
-16.3923811369614
-17.0011379534645
-16.7228532632298
-15.1732368060911
-11.9626785696896
-6.71426049843276
0.91084350496835
11.1694673689607
24.1678205320306
39.7732118873765
57.525298474336
76.5769103984145
95.6962620668603
113.351927352466
127.88114126894
137.717426279362
141.634137403462
138.953382090908
129.676859127918
114.512864102741
94.7954468023729
72.3114280373405
49.0652421166019
27.0195115328998
7.85134139782187
-7.23903153139459
-17.6394340650308
-23.3430365369024
-24.8753064767443
-23.150933880484
-19.2924386907874
-14.4452859617358
-9.61935985860769
-5.57656518318636
-2.77300495981153
-1.35453540509875
-1.19768467472124
-1.98369359558374
-3.2910537497072
-4.69090515232569
-5.83006137294564
-6.48866495686656
-6.60391477768602
-6.25778999589875
-5.63418007447817
-4.95751638288938
-4.42897319623799
-4.17630392043001
-4.22922753104446
-4.52490504471917
-4.93930506848706
-5.33267183938625
-5.59344814018801
-5.66646546755784
-5.55766593304101
-5.31665498633239
-5.00645837506707
-4.67387274203158
-4.33239791435744
-3.96370828806127
-3.53547305999656
-3.02636944874622
-2.44619709156401
-1.84129273568733
-1.28193857444986
-0.836357502305252
-0.541883986397469
-0.385580825451937
-0.303316749451216
-0.199376728683577
0.0193680997844789
0.40681638899149
0.952363708452229
1.57739852469524
2.15643127997541
2.55681915644465
2.68406259933533
2.51718574211387
2.12174650478777
1.6355378290674
1.23134901948067
1.06884273707714
1.25089713238552
1.79769302655529
2.64549678214809
3.66898469448083
4.71883538810213
5.66230444175722
6.4145802659376
6.95263239177911
7.30958631246526
7.55419633000519
7.76445624508042
8.00526819424124
8.31722953207545
8.718280672014
9.21442990486799
9.81234078458563
10.5265753536747
11.377507583152
12.3807701289648
13.5334462315095
14.8042753923936
16.1340210573611
17.4481410189425
18.6784925172414
19.7862777472623
20.7769355653783
21.700122011206
22.63343797491
23.6549165855054
24.8138802925481
26.1107597726989
27.4934170615879
28.8715930771256
30.1445879642675
31.2326501400537
32.1014105119527
32.7712481208557
33.3086413639067
33.8025608383977
34.3338722163981
34.9479729041587
35.6397131124958
36.3553812633132
37.0105973364017
37.5174556171177
37.8111798779396
37.8669825720684
37.7015158810756
37.3588744693955
36.8866142940549
36.310854143931
35.6199943095263
34.7636430666513
33.6678676744426
32.261779607063
30.5060279505037
28.4128188807864
26.0501017317558
23.5284274423946
20.9753319143709
18.5063630756702
16.2024277641581
14.0999595923701
12.1950127798473
10.4571081170341
8.84566136557619
7.32219330879568
5.85479253081777
4.41572954125312
2.97656562905222
1.50605602059474
-0.0256534883502759
-1.63663608009709
-3.32040891682695
-5.03671685740482
-6.71138164207878
-8.24780514241061
-9.54842636629702
-10.5404185732555
-11.1976834796845
-11.5516052226521
-11.6860671456351
-11.7170830750222
-11.7625514454842
-11.9113137814442
-12.2014279851293
-12.614824572806
-13.0900189255888
-13.5481634914976
-13.9228491187429
-14.1826959878733
-14.3385788656062
-14.4333015780948
-14.5183848045681
-14.6277162900433
-14.7591492254399
-14.8721151658297
-14.9029551757117
-14.7923340178449
-14.5137380886778
-14.091059981723
-13.5973358250802
-13.134287411861
-12.8002068188102
-12.6584945460608
-12.7188295889152
-12.9377732271224
-13.2378629352157
-13.5371635143654
-13.7776009973838
-13.9414435456667
-14.050318314199
-14.1480447763127
-14.2747385103104
-14.4429239873211
-14.6256252428261
-14.7617797057291
-14.7774756652655
-14.6150688286515
-14.2588084019366
-13.7466661274137
-13.1632252681245
-12.615664791226
-12.201218997233
-11.9776071847719
-11.9467711564109
-12.0574091628567
-12.22509181331
-12.3625699972176
-12.4093752196895
-12.3502030831729
-12.2157739354917
-12.0664130333838
-11.9650559843255
-11.9502549138258
-12.0194910944422
-12.1288168587735
-12.2083422541788
-12.1870299128684
-12.017064274971
-11.6888470966803
-11.2319152629023
-10.7028916371709
-10.1665095836592
-9.67780711093137
-9.272102202447
-8.96523310618061
-8.76173637125726
-8.66525117545283
-8.68484883081091
-8.83329527564631
-9.11734978922138
-9.52431072824249
-10.0114457887367
-10.5046741894105
-10.9098542906215
-11.1352169440818
-11.1185990990756
-10.8501631933347
-10.3816833321466
-9.81741899684161
-9.28779756206807
-8.913316369058
-8.76991375801832
-8.86708301780942
-9.14615334625573
-9.4997028605259
-9.8061012721462
-9.96800989588751
-9.94212602556174
-9.75025252799049
-9.46809977466521
-9.19594180041778
-9.0216071285187
-8.98896252210456
-9.08301404041983
-9.23668449707397
-9.35643889956633
-9.35716779794065
-9.19363100164245
-8.87739346010896
-8.47377925347522
-8.08067683087075
-7.79727685744671
-7.693820178195
-7.79232864191324
-8.06376822337468
-8.44100553329217
-8.84154733034836
-9.19124925537762
-9.44074588802849
-9.56987994278461
-9.58049831516708
-9.48270097505244
-9.28211903139839
-8.97499829489933
-8.55402757256251
-8.02254127899556
-7.41021506141961
-6.78169481770257
-6.23168072448254
-5.8652025196682
-5.76815923656178
-5.97803796333678
-6.46594065752234
-7.13789086961334
-7.8568309558739
-8.47912403318018
-8.89368161980035
-9.05041819815283
-8.96836305065761
-8.72118035859608
-8.40617824279514
-8.10877548804865
-7.87548526166947
-7.70447105719683
-7.55548027942318
-7.37354751042846
-7.11619484183365
-6.77348374982528
-6.3739016600519
-5.97495125787805
-5.64312147718137
-5.43160605111272
-5.36450496942601
-5.43323954730399
-5.60566254187449
-5.84291501806737
-6.11578260416962
-6.4126800305977
-6.73539215870371
-7.08459699707892
-7.44238380079624
-7.76115830859949
-7.96645313818438
-7.97578960431805
-7.72880453833654
-7.21805602568991
-6.50777456596966
-5.73065021815581
-5.05996932173302
-4.66358795733862
-4.65383018718439
-5.05020339040901
-5.76836383608881
-6.64014824260222
-7.45898182189343
-8.0365219220458
-8.25292472116086
-8.08557412610902
-7.60841552833507
-6.96364614420812
-6.31621135623063
-5.80644125076085
-5.51564718050934
-5.45394573982696
-5.57121318305579
-5.78412784432325
-6.00764606153301
-6.17941059925835
-6.26999095648052
-6.27838939310555
-6.21815507501072
-6.10246067701219
-5.93568419992581
-5.71506028688831
-5.4406884318566
-5.12792047118076
-4.81472292001147
-4.55860635169016
-4.42225261760167
-4.4521280454641
-4.65801422054779
-5.00199976181514
-5.40266416960583
-5.75482112253139
-5.95921701983533
-5.95240013834963
-5.72641840310141
-5.33139943405359
-4.86007124765642
-4.41956316577046
-4.10006600370861
-3.95064940224568
-3.96957389732321
-4.1109986280492
-4.30416910361478
-4.47715158570214
-4.57638196354079
-4.57582649296403
-4.47420100655285
-4.28352124708118
-4.0154239651612
-3.67212478447749
-3.24650306894405
-2.73155254756188
-2.1349496374682
-1.49157186307801
-0.866717071958931
-0.345770462405034
-0.0112397977179388
0.0863861498857295
-0.0462027892803482
-0.334252962030465
-0.644734021027333
-0.816437937912956
-0.702790600841472
-0.214702656351224
0.65023255211873
1.80234474577771
3.08132979365109
4.29903631525623
5.29092769310411
5.96027042035583
6.30108412065515
6.39266372889568
6.36778105526997
6.36528017679992
6.48275832394845
6.74470849187554
7.09600351693375
7.42176514629278
7.58553485137239
7.47156747336385
7.01637968299581
6.21971057957601
5.13367254597022
3.83739888733477
2.40938275144158
0.909125419882363
-0.625720802123247
-2.16815132956298
-3.68434119526587
-5.12014891098658
-6.39963021337861
-7.43799406074333
-8.16490407105563
-8.54922664400998
-8.61510864667215
-8.44208951784173
-8.14775118119663
-7.85798553351878
-7.67477942745447
-7.65256811888564
-7.79115227112345
-8.04701148725724
-8.3579542432474
-8.67113544569917
-8.96347152859439
-9.24675443141575
-9.55603427341049
-9.9266831809502
-10.3702601574904
-10.8599245168036
-11.3323858629748
-11.7067361756333
-11.9136136595136
-11.9236460867327
-11.7637475841786
-11.5138858774192
-11.2840727061719
-11.1789368514137
-11.2623315945879
-11.5349015101835
-11.9330741523939
-12.350186748807
-12.6723795422646
-12.8166260430693
-12.7578251092929
-12.5362640382628
-12.2440766294148
-11.996679878038
-11.8999262242555
-12.0243362151572
-12.3942496585222
-12.9934557065513
-13.7822482861105
-14.7164820653046
-15.7587822692747
-16.8756923516163
-18.0206494207375
-19.1086466794008
-19.9918074487857
-20.444689495153
-20.1645688669686
-18.7871794627128
-15.9147185760185
-11.151937191367
-4.1478766912961
5.35630326565272
17.4715545008918
32.0977198496572
48.859805466415
67.0589292270155
85.6589264492603
103.328783881125
118.551759340566
129.795985198768
135.723639399014
135.402576030539
128.479915326933
115.28219027733
96.8189643102056
74.6830842587677
50.8581042944932
27.4598111824387
6.45217391234774
-10.6141818974815
-22.7937584920655
-29.8326287978687
-32.1353437734241
-30.6243512609872
-26.5274056041826
-21.1419394880175
-15.6253698276539
-10.8480072573213
-7.32556803047902
-5.22774720628874
-4.44367212451967
-4.6776231155834
-5.5493327219486
-6.67997985146873
-7.75399166431166
-8.55461140351098
-8.97600664481209
-9.01642158586893
-8.75680245628358
-8.32905471446175
-7.87861566190785
-7.52732269060708
-7.34374443163001
-7.32798402637107
-7.41554414078269
-7.50017833124378
-7.46991661448437
-7.2456433476368
-6.80978195530417
-6.21500619723715
-5.56910081623051
-5.00016911836605
-4.61346106881538
-4.45453640034391
-4.49188742055091
-4.62588296404599
-4.72197612024499
-4.65756514085947
-4.36670472886305
-3.86695936638173
-3.25824580542796
-2.69284006358151
-2.32573886785132
-2.26173573609067
-2.51717782766526
-3.009635767232
-3.57925871949811
-4.03483155381664
-4.2093725309237
-4.00732253295863
-3.42876914943137
-2.56430261143047
-1.56395786905189
-0.59174450740304
0.219103450822999
0.796651115896109
1.13894406408069
1.30108168888471
1.36792027970077
1.42347476331954
1.52772416196625
1.70751839970012
1.96237439054767
2.28032375672094
2.65556026404326
3.09958675848846
3.64087739415893
4.3134350231863
5.13977399834074
6.11653534911916
7.20994875240685
8.36412438994731
9.51952853257608
10.6343910232067
11.7001782514909
12.7443577727868
13.8186807707684
14.9771196273247
16.251990230094
17.6377743581597
19.0892340398401
20.5347556054024
21.8998456853609
23.1318101394545
24.2163909456121
25.1804893664184
26.0806245126415
26.9822206218865
27.938000902215
28.9734590523095
30.0838652240652
31.2422180846827
32.4132356129446
33.5666477975201
34.6842237351841
35.7583022472944
36.78348077039
37.7459644156895
38.6159443733942
39.3471346651951
39.8847775498979
40.1800115020389
40.2057041795034
39.9677754791654
39.5071648100815
38.8906078350204
38.1922944259277
37.4719716315739
36.7568626117295
36.0340477649713
35.2566609527892
34.3623794407385
33.2980173697953
32.0414333930455
30.612544518303
29.0689155419892
27.4869365881927
25.9350130731658
24.4483822707317
23.0148312676355
21.5768196732316
20.0497444378445
18.3504483453667
16.4265494258284
14.2769069805562
11.9565247348106
9.56434344712272
7.21798477037862
5.02376565246824
3.05179074239457
1.32406322260272
-0.181117708895771
-1.51104256442578
-2.71414863550723
-3.81858622664347
-4.82151134705624
-5.69238580970287
-6.3881536868247
-6.87387368167908
-7.14075273295286
-7.21501639154884
-7.15495388187869
-7.03814724886248
-6.94438712441064
-6.94067565767771
-7.0727962715375
-7.3642868171872
-7.82017860120703
-8.43127779676468
-9.17570989676625
-10.0171796649312
-10.9022806634279
-11.7606486309814
-12.5110874398574
-13.0743649813406
-13.3902682235905
-13.4340236369438
-13.2263703684227
-12.83283951195
-12.3508158130295
-11.8868076532191
-11.5297974890134
-11.3284070117573
-11.279120744659
-11.3298973466152
-11.3988564452965
-11.4026874096731
-11.28565511315
-11.0391201820583
-10.7041343227171
-10.3554116482746
-10.0719542032846
-9.90517616864287
-9.85710656831594
-9.87802029239658
-9.88549486558671
-9.79818491193163
-9.57121868927476
-9.2189297490988
-8.81528153443641
-8.47091102396137
-8.2946991248304
-8.35367026301051
-8.64575201816965
-9.09544494155411
-9.57450403202624
-9.94108924261213
-10.0844292330915
-9.96005885790719
-9.60384032867442
-9.12014625927302
-8.6482314299527
-8.31797413004091
-8.20949895264079
-8.32970611852223
-8.61295235342755
-8.94495160084096
-9.20118043687345
-9.28644742370511
-9.16246012773682
-8.85502803170169
-8.44006612079191
-8.01494403772986
-7.66627486638124
-7.44547455900762
-7.35954526300446
-7.37824947875163
-7.45267643238986
-7.53652153370004
-7.60145954610371
-7.64146072754471
-7.66608183485787
-7.68741445348403
-7.7076750103658
-7.71364314401341
-7.68078452871355
-7.5853785662777
-7.41920157059014
-7.19989657281697
-6.97171546087524
-6.79521198395427
-6.72908290558078
-6.81079815394492
-7.04352051188575
-7.39470967799978
-7.80747722884787
-8.22079228663048
-8.59093318853612
-8.9056860115352
-9.18526821051945
-9.46906129900653
-9.79309158275492
-10.1674376971392
-10.5634696497486
-10.9174736368776
-11.150896053232
-11.2005422381861
-11.0473682309484
-10.7320845244616
-10.3501236238018
-10.0261382317388
-9.87615542020414
-9.97059441782405
-10.3114506558432
-10.8319683190635
-11.4190037934971
-11.9501404600233
-12.3325123606826
-12.5300831170498
-12.5707372706173
-12.5320056844765
-12.511593364099
-12.5934942545456
-12.8210979516741
-13.1855394016489
-13.6319207384336
-14.079873667376
-14.4503001997403
-14.6886013909939
-14.7767458185633
-14.7312824079502
-14.5899860283382
-14.3940431089139
-14.1738699429031
-13.9443609356998
-13.7106151959895
-13.480101687939
-13.2740635678732
-13.1311437158866
-13.0997058827681
-13.220669921749
-13.5075512964442
-13.9325846483409
-14.4262351915148
-14.8925976544428
-15.2370186781642
-15.3971160883843
-15.3661589760944
-15.1994491414587
-14.9995859606006
-14.8837823857553
-14.9433188837137
-15.2091209194319
-15.6364238146063
-16.1154075812391
-16.5055445310603
-16.682659675637
-16.5827727948951
-16.2275675347862
-15.7224998393102
-15.2278494414931
-14.912127366723
-14.9030064761997
-15.2514200343726
-15.9196817571132
-16.7962718337696
-17.7312187445276
-18.5796821447244
-19.2393720966712
-19.6703340392371
-19.8923289295124
-19.9631885022017
-19.948157382176
-19.8928195106496
-19.809759246203
-19.6827351880125
-19.4846109974741
-19.199746026296
-18.8401734863017
-18.4480667099599
-18.0832452682181
-17.8011055121024
-17.630574964402
-17.5617862086077
-17.5492267820723
-17.5298472475605
-17.449494022071
-17.2873933044979
-17.0686357298751
-16.8587114568642
-16.7406868627736
-16.7821794779639
-17.0034242492922
-17.3579070493964
-17.733191311587
-17.973009174431
-17.9146784937675
-17.4308255383504
-16.462941493347
-15.0369510296041
-13.2568179331905
-11.2792211981566
-9.27800346215189
-7.40943280879363
-5.7877010978996
-4.47543217095637
-3.48824113641285
-2.8077250486252
-2.39530915646925
-2.2007205043712
-2.16283947727819
-2.20553124512569
-2.23458598305448
-2.14236195719355
-1.82363767810181
-1.20063761124717
-0.24958122938718
0.981883709707365
2.37560684596466
3.76577857888855
4.97929581153358
5.8821603180223
6.41713522077807
6.6199538558254
6.60822341050588
6.54624381197912
6.59683349796051
6.87514369675578
7.41832015145368
8.17950457472306
9.04698854206029
9.88171918185465
10.5610504536253
11.0151901774401
11.2455998767036
11.3206899759729
11.3514558972645
11.4557877273977
11.723131880493
12.1902204151038
12.8342833807572
13.5841472721425
14.3439820020941
15.0210198033119
15.548297958032
15.8961740971763
16.0708069542923
16.1022767874235
16.0280005666
15.8777232323422
15.6646967394981
15.3845878026084
15.0205450844997
14.5509706654658
13.9564904030439
13.2241150702738
12.3486783283239
11.3332449130019
10.1905326845656
8.94628418341136
7.64346873403384
6.34431979140204
5.12673203896743
4.07306487733524
3.25251927459861
2.70169683848272
2.41011048085999
2.31706062108074
2.32313285563271
2.31451935392786
2.19329452008537
1.90383166570578
1.44618516560741
0.871496739914315
0.26080805783446
-0.305318892390626
-0.77555817649064
-1.1446756980864
-1.45259476897505
-1.76642872232221
-2.15258845146583
-2.64964430105161
-3.25209504072598
-3.9109246062147
-4.55054291583033
-5.09574499762288
-5.4987686557857
-5.75655673909533
-5.91186933466373
-6.03770894602485
-6.21060762865005
-6.48250768479083
-6.86163549597793
-7.30951060699912
-7.75514742396906
-8.1209318865373
-8.35025342156058
-8.42654014703641
-8.37700213320676
-8.26056756778478
-8.14565494372691
-8.08709387764573
-8.11130036697413
-8.21497160224831
-8.37680294835769
-8.57642794736451
-8.81196495883266
-9.10811627530395
-9.51024273458398
-10.0647266254851
-10.7903965136024
-11.6483832556209
-12.5179201845213
-13.1836108502151
-13.3366121170657
-12.5894516291365
-10.5030321436296
-6.62503654984231
-0.540401755173662
8.06512271289102
19.3297957843825
33.136301584204
49.0425107976642
66.2433818242429
83.5854889295077
99.6484919644996
112.893449916355
121.860324913244
125.382230886876
122.776894006953
113.978281283069
99.5819970042997
80.7935049550239
59.2849496789178
36.9815506381011
15.8103762804211
-2.54860725244995
-16.8684009345971
-26.5035505040023
-31.4215546359144
-32.1369047902889
-29.5676143833945
-24.8486015915337
-19.1410551047302
-13.4714134564683
-8.62102829692038
-5.07309645439381
-3.01161999231757
-2.36030976363033
-2.84733535373539
-4.08292812144815
-5.63899427452839
-7.12166259187522
-8.22882512592119
-8.7859993555539
-8.75624926744767
-8.22383262320556
-7.35613163713558
-6.35303595179208
-5.39587107628198
-4.60809901921121
-4.03694005432127
-3.65928351252538
-3.40822336351992
-3.21034872411824
-3.0206082735906
-2.84245799263319
-2.72607729161291
-2.74522202867973
-2.96119894769076
-3.38762510330079
-3.96996086298383
-4.58884497826936
-5.08765209319603
-5.315657643367
-5.17225032246762
-4.63708223409137
-3.77603722847011
-2.72145695482554
-1.63395821135842
-0.659142516304496
0.106549193642933
0.630788171880001
0.938605595703605
1.08929397545224
1.14756094014383
1.16038906216931
1.14756216908988
1.10765484842018
1.03497244115291
0.938818473202067
0.855903020323856
0.849685502322404
0.995724526444261
1.35767749327214
1.96242129592161
2.78355058446597
3.74006628584508
4.71221927907305
5.57073571993829
6.21089076817089
6.58086877904632
6.69549779070186
6.6313255324144
6.50526709371198
6.44424317376888
6.55544641418385
6.90560447583521
7.51373092607511
8.35703214881395
9.38557421443852
10.5392391944253
11.7609353706831
13.0026679636592
14.2248051414819
15.3920682364936
16.4710171951805
17.4325871463622
18.2602001280886
18.9605513214673
19.5718896630387
20.1645217352041
20.8305538596549
21.6638015061305
22.7348719125456
24.0690149755191
25.6342750450704
27.3445830875551
29.0776262843699
30.7023506037995
32.1077045740358
33.2240277349114
34.0314003763782
34.5540557027525
34.8446362247054
34.9648984396137
34.9696088506022
34.8980830446333
34.774178983051
34.6120612395317
34.4230663847264
34.2191872543302
34.0107913891596
33.7992395954798
33.5678658524325
33.2762146040758
32.8617978091855
32.2509535669854
31.3765970560524
30.1973260542686
28.710976902908
26.9570546649778
25.0061633440404
22.9393840889763
20.8246733364317
18.6990103523008
16.5632690849409
14.3920643885848
12.1549193973681
9.84044882853434
7.47383217430327
5.12027091164859
2.87237590043623
0.825424012603059
-0.951060265483031
-2.4354221902668
-3.66164326082317
-4.7094589980552
-5.67959400514462
-6.6622172606953
-7.70939343982412
-8.82119156111944
-9.95039021663919
-11.0239426849166
-11.9730252048144
-12.7601008919294
-13.3924671927768
-13.9169737521981
-14.3980678772763
-14.8881394845635
-15.4025317526546
-15.9100481640925
-16.3437493335959
-16.6285977502146
-16.7153894911472
-16.6073670271573
-16.3682708448483
-16.107494024573
-15.9467577822326
-15.9799313437303
-16.2405355550534
-16.6890039028158
-17.2247966337311
-17.7194680634334
-18.0590695382975
-18.180775649218
-18.0907661547399
-17.8573952351357
-17.5828095433585
-17.3639179626038
-17.2571135560556
-17.2592923184548
-17.3114281696454
-17.3227117702382
-17.2060516476131
-16.9120164029339
-16.4491470972805
-15.8835099033297
-15.3176762497525
-14.8565831938284
-14.5724224840521
-14.481037950471
-14.538014992028
-14.6552805113311
-14.7314273662702
-14.6840942759229
-14.4724766126554
-14.1025038596864
-13.614560697474
-13.0607602672172
-12.4826597628282
-11.8993296200231
-11.3103928813327
-10.7114580335502
-10.1134714167783
-9.5554911000935
-9.10309433526162
-8.83089867839573
-8.79485086242783
-9.00502779657609
-9.41056377689044
-9.90447798306539
-10.3489714888756
-10.6139186930241
-10.6158694708988
-10.3440512021424
-9.86395402538566
-9.29661957783269
-8.7801103131892
-8.42592404161633
-8.28503309643883
-8.33488065248619
-8.4911615632944
-8.63942189003829
-8.67483243942748
-8.53631284511372
-8.22399558999922
-7.79548674101835
-7.34398390052516
-6.96728167731415
-6.73900834482022
-6.69152073541776
-6.81472940950785
-7.0688495374926
-7.40409936182435
-7.77849563203931
-8.16663202179566
-8.55678568139288
-8.93902400671329
-9.29108025720337
-9.57003802823113
-9.71574669728304
-9.66705018647079
-9.38610979087299
-8.88166512367987
-8.22101903815632
-7.52363533541521
-6.93557938026718
-6.59126972345129
-6.57434196056279
-6.89073936439358
-7.46378818987919
-8.1539800870796
-8.79778569803569
-9.25304400951543
-9.4359940527092
-9.33808022848756
-9.01824770406285
-8.57547100987296
-8.11300812707793
-7.70778534417954
-7.39502277881387
-7.17138261180348
-7.01241699465216
-6.89484379481055
-6.81312661029475
-6.78317495903699
-6.83209899208901
-6.97919815015955
-7.21723478456804
-7.50313538876144
-7.76361087984822
-7.91516927086139
-7.89190651676357
-7.670753349459
-7.28414632650616
-6.81442668057723
-6.37102212645951
-6.05795082313456
-5.94279818164467
-6.03768059016373
-6.29823048797059
-6.64018608511789
-6.96719730279507
-7.20004245240746
-7.29761112667109
-7.26346266810135
-7.13711286274097
-6.97448195677611
-6.82537309707054
-6.71637550175046
-6.64508839284146
-6.58692391520186
-6.5107046185279
-6.39586790485143
-6.24376239350431
-6.07833442694483
-5.93613412748021
-5.8500416198338
-5.83370387314337
-5.87348067019329
-5.93180514244622
-5.96128732738538
-5.92434789088419
-5.81052121375259
-5.644027281694
-5.47776233169229
-5.37517655664508
-5.38646534566376
-5.52805088006129
-5.7733845434499
-6.05897348668253
-6.3038030670293
-6.43521686527384
-6.41184942228099
-6.23538511781193
-5.9472777728207
-5.61234987080444
-5.29608135338432
-5.04449585599018
-4.87410730577239
-4.77503237597043
-4.72486094846715
-4.70643624144363
-4.7211341010471
-4.7911839480356
-4.94927860036628
-5.21931683601177
-5.59634682184355
-6.03485953128967
-6.45197595644402
-6.74666598285002
-6.82989536174001
-6.65586529049411
-6.24315401078421
-5.67726019826947
-5.09199015251337
-4.63432506246738
-4.423303291054
-4.51587875137741
-4.89071689895123
-5.4550994144904
-6.07250835185314
-6.60170853680828
-6.93465744128181
-7.02158180826328
-6.87660198475197
-6.56436261607973
-6.17452395104361
-5.79431441801694
-5.48854596559013
-5.29215514344785
-5.21452026054636
-5.25012541632388
-5.38850516716872
-5.6181500724857
-5.92298720467845
-6.27423488292582
-6.62312207047052
-6.90016922215658
-7.02437950599372
-6.92161113747074
-6.54711575926593
-5.9044688657797
-5.05314766782755
-4.10008826295138
-3.17578661910215
-2.40108888121571
-1.85461585554382
-1.55118758142811
-1.43832769920867
-1.4120614674212
-1.34691647828511
-1.13059212155096
-0.692719952102683
-0.0196770105518258
0.847585048871535
1.83012083035293
2.83506918986957
3.77864372675145
4.60096483315206
5.2697159415298
5.77446087391817
6.11697312449908
6.30362080936191
6.34364134239623
6.25327921742662
6.06211278431301
5.81609619903864
5.57271795716121
5.38698529095241
5.29141132885407
5.27693634700023
5.28304471558657
5.20341571821925
4.90864690625165
4.28140844775703
3.25404444356331
1.83636029131297
0.123404134761607
-1.72094812417644
-3.50093837003948
-5.03588027055382
-6.20316533860424
-6.96447399163447
-7.36759015002136
-7.52392701480657
-7.56960782675927
-7.62316424954491
-7.75375828626818
-7.96986702448725
-8.23089833626246
-8.47590130852834
-8.6574582636953
-8.76728305280547
-8.84362095054496
-8.95787500798531
-9.18607291297937
-9.5766284414671
-10.1271934143663
-10.7798901894484
-11.4372269111723
-11.9930742287839
-12.3671947929497
-12.530352709472
-12.5107377050426
-12.3799005787463
-12.2244956418122
-12.1154282740414
-12.0863609360901
-12.1290045126767
-12.2053480797841
-12.2701448916005
-12.2933975583844
-12.2735002395945
-12.2363212147044
-12.2216588146864
-12.2636893557041
-12.3743702734582
-12.5374803722112
-12.7165635078979
-12.8741685218095
-12.994781162458
-13.1017706597022
-13.2603556812682
-13.5633053987267
-14.1019743534689
-14.9301859092059
-16.0308052115707
-17.2939452842643
-18.5120699420849
-19.3920917917359
-19.5797148676364
-18.6886199561712
-16.3279774560705
-12.1262011985121
-5.75496735416981
3.03800920542048
14.3794303350942
28.202920284799
44.1738487378878
61.6282080413678
79.5531039768563
96.6324666180018
111.367445318903
122.260551703536
128.032892482657
127.831834824918
121.386203978524
109.077063632996
91.9099696703494
71.3937394915781
49.3467672544321
27.6625003573422
8.07058994714212
-8.07005941263101
-19.9153861485678
-27.1968608612393
-30.1931398318934
-29.6239246245806
-26.4916567956184
-21.9041964874286
-16.9103769613254
-12.371908437819
-8.88354884252975
-6.74291889319422
-5.96425749042033
-6.32700622779522
-7.44903050345188
-8.87381561914256
-10.1601189500826
-10.9615385644835
-11.0834959088773
-10.5076117996247
-9.37895345881102
-7.95934402200433
-6.55784749937076
-5.45522280271738
-4.84063703743495
-4.77552952847755
-5.19201534372761
-5.92368296194743
-6.75784452452704
-7.49293099469871
-7.98454205307525
-8.16870398382534
-8.05925807525736
-7.72485109114373
-7.25668205858201
-6.7392350738788
-6.23278978718904
-5.77030915449526
-5.3650553613949
-5.02152122638678
-4.74233020630241
-4.52729627105133
-4.36601044274733
-4.2296226712151
-4.06880731962233
-3.82250085664455
-3.43691806701049
-2.88892744235812
-2.20459497543535
-1.46410788174168
-0.788366516643556
-0.308885604071061
-0.129021817113131
-0.288603668338041
-0.744145733905427
-1.37262554677421
-1.9994251525144
-2.44290282116562
-2.56210643863749
-2.29269737910489
-1.65992139415483
-0.765171878524437
0.248431487074703
1.23921837688691
2.10440891564617
2.80037154477825
3.341291919744
3.78004166992573
4.18112965139313
4.59732605165183
5.05849905801877
5.57499196725298
6.15124871208751
6.80106873954284
7.55547307552993
8.45775771061669
9.54640086306236
10.8325245132507
12.2819864794055
13.8113906969046
15.3025670927612
16.6331408227948
17.714235525629
18.5226045987976
19.1151419158026
19.6189090971317
20.1979799059434
21.0066753892499
22.1439729927621
23.6239029968933
25.3715122377048
27.2454310852336
29.0793224462661
30.7285370401559
32.1070722289934
33.2037242524406
34.0737440032886
34.8107105791566
35.509710779338
36.2349865326677
37.0023818307617
37.7805346578549
38.5075458026464
39.1146925948096
39.5474172266499
39.7763709888777
39.7963049723949
39.615869861462
39.2448326424936
38.6855979271372
37.9332817649709
36.9841985734439
35.8484112259244
34.559705740938
33.1768938613563
31.7735501552168
30.4180199628452
29.150031488932
27.9626851034115
26.7977763371538
25.5583230175955
24.1361256529238
22.4464150109277
20.4583938140181
18.211135347443
15.8087930594835
13.3959061330702
11.1203570884514
9.09579565292146
7.375489439597
5.94550221462587
4.7383474946971
3.66134658281518
2.62931517705314
1.59039660992322
0.536963340118246
-0.50064811855802
-1.47335762569511
-2.33674653535532
-3.06902394671088
-3.67700109540505
-4.18902079972428
-4.63932150698059
-5.05167138041728
-5.43004133318489
-5.76067511338142
-6.02457602947921
-6.21447442615113
-6.34801143981241
-6.47026444093705
-6.64322903074338
-6.92545750534558
-7.34935594786584
-7.9049916507723
-8.53724859443445
-9.15855356035428
-9.67374984428083
-10.0089869275337
-10.1345266436516
-10.0730792575346
-9.89026072905167
-9.67028203001717
-9.48560882643084
-9.37183149965107
-9.31722633305006
-9.27097225816772
-9.16677943608427
-8.95266314011318
-8.6152400908295
-8.18918073734468
-7.74829517257533
-7.38171119521477
-7.16400176225824
-7.13003655129395
-7.26327432511073
-7.50112645378308
-7.75486591059393
-7.93655689551209
-7.98336273415677
-7.87103551612465
-7.6128185513428
-7.2457195751588
-6.81093720676034
-6.33724949561572
-5.83454575061725
-5.29998661117604
-4.73342921428608
-4.15426268469012
-3.61064898210744
-3.17495350867766
-2.92488323845559
-2.91630312322492
-3.15817458696793
-3.60042351017709
-4.14127184876174
-4.65318339130692
-5.01912264686532
-5.16648723436244
-5.08666951772352
-4.83342221709525
-4.50089927792832
-4.18945687329353
-3.97141407401514
-3.86860904470092
-3.84902767399645
-3.84282318356022
-3.77127976726459
-3.57806623765134
-3.25176854257299
-2.8320922351733
-2.39800376914857
-2.04239763200121
-1.84244630529173
-1.83600166561119
-2.01187876132934
-2.31659156137874
-2.67416251382339
-3.01121582104683
-3.27823758769375
-3.4599807758865
-3.57255819868837
-3.64994931681118
-3.72642822445935
-3.82242394108729
-3.93931414502409
-4.06454946310026
-4.18398677752121
-4.29517631674643
-4.41485271988845
-4.57628230188116
-4.81655363631195
-5.15859616027511
-5.59560680926359
-6.0852279994686
-6.55724104261825
-6.93319807822598
-7.15154994077342
-7.18937513151524
-7.07266194494476
-6.87089386198762
-6.67710131385375
-6.5796946938498
-6.63544617055728
-6.85277400480333
-7.19097644047368
-7.57546958247371
-7.92346258079203
-8.17096929148839
-8.29189597842196
-8.3031117647634
-8.25461702231907
-8.20920185238172
-8.2194155831484
-8.31010224784566
-8.47223160303746
-8.66938086443154
-8.85364921137261
-8.98458869404855
-9.04396513462732
-9.04107392905881
-9.00722467273173
-8.98234535892565
-8.99965210471813
-9.07475108670182
-9.20330523256794
-9.36757621812251
-9.54838516343519
-9.73681724219568
-9.94016442288493
-10.1790930879757
-10.4768530732013
-10.8449210495405
-11.271264271048
-11.7166445320554
-12.12136765508
-12.4208476443341
-12.5648806028736
-12.5339034892173
-12.3463285874675
-12.0540596235441
-11.7275116593977
-11.4353294456651
-11.2259633745518
-11.1174593554505
-11.0985570689152
-11.1398132009692
-11.209723905192
-11.2891258177949
-11.3780736214773
-11.4925342940606
-11.6524551503349
-11.866514304345
-12.1206811021002
-12.3766895659437
-12.5827203326582
-12.6932632166429
-12.6905309536024
-12.5981738871667
-12.4804264927496
-12.4253324467196
-12.5170368713336
-12.806697367202
-13.2925547049055
-13.9167490463692
-14.5806448794537
-15.1738197110862
-15.6068745221781
-15.8367581188052
-15.876049915959
-15.7836418784065
-15.6411246270522
-15.5241442766025
-15.4791710706956
-15.5133269708947
-15.5995867654577
-15.6940065213218
-15.7576363157449
-15.774573915121
-15.7593694955531
-15.7510513483077
-15.7961161003611
-15.9271703296819
-16.1458269855518
-16.4170528067722
-16.6778592270169
-16.8576716498797
-16.9030726048588
-16.7977162072398
-16.5698412235367
-16.2844235615059
-16.0228732903621
-15.8579624363455
-15.8333791509595
-15.9552201917239
-16.1977550781275
-16.5200050697026
-16.885429007748
-17.2759943585937
-17.6945697672455
-18.1548826890772
-18.6640501835934
-19.2063711431726
-19.7369319577176
-20.18958850997
-20.4977179414445
-20.6203346344337
-20.5630776047124
-20.3845116931801
-20.1830156744679
-20.0666762453529
-20.1154704427518
-20.3489046965116
-20.7114863193499
-21.0829468944342
-21.311766542653
-21.2621486705681
-20.8592076421154
-20.1168801660312
-19.1383394325454
-18.0878651810627
-17.1430342665334
-16.443099164853
-16.0507888124728
-15.939859322561
-16.0113715320895
-16.1314872458877
-16.1764429024118
-16.0688316959599
-15.7936531380947
-15.3907660865331
-14.9290900523189
-14.4738773631109
-14.059627443068
-13.6776604243936
-13.2808092690586
-12.801004551322
-12.1713702553772
-11.3441206391511
-10.2986484091542
-9.03906759421454
-7.58498233401302
-5.96160062685516
-4.1947479943845
-2.31338919478619
-0.358352484299262
1.60734534199069
3.49266432353533
5.18240663752065
6.55286051023195
7.4967861654765
7.95096088062412
7.91714656989277
7.46829198536828
6.73607973392954
5.88215638863163
5.06118944498111
4.38699307238541
3.91209023346733
3.62648878345561
3.47483418174147
3.38492542283094
3.29707450261028
3.18408326412742
3.05542903543498
2.94516636966156
2.88902764388902
2.90020453368398
2.95389287924607
2.98756188645094
2.91804323965737
2.66999218183417
2.20552745205826
1.54382910493017
0.762687110534973
-0.019693354817766
-0.677272835315829
-1.11261145300736
-1.28517102266249
-1.22223798574798
-1.00913176321141
-0.762329539831214
-0.594686803745883
-0.58416069927997
-0.755704083621514
-1.08107179160617
-1.4950239273986
-1.92104737802502
-2.29705110435387
-2.59235193555326
-2.81125052423964
-2.98400464801358
-3.15077286332125
-3.34619676227844
-3.59104969340844
-3.89360054605808
-4.25873738658403
-4.69931608780499
-5.24298595936431
-5.92931329220662
-6.79572305707726
-7.8551426862121
-9.07156448389972
-10.3407670176551
-11.4817576115115
-12.2407899550853
-12.3056403927033
-11.3251151778786
-8.92899450328196
-4.7470667645872
1.56881961826875
10.3114784720315
21.6655951074358
35.6332331163454
51.946934512809
69.9925627769481
88.7722656986215
106.936214029063
122.898238505839
135.02823205981
141.890536827849
142.481109853959
136.413014614091
124.010375636147
106.291008760706
84.8408631967335
61.6033351154873
38.6200499694994
17.765867777739
0.519967623120747
-12.1924460830464
-20.0662297561949
-23.3856073570722
-22.9100457951209
-19.7044910836442
-14.9489041018376
-9.7606516777874
-5.05525043998939
-1.45979202372398
0.717564930647876
1.46738010131017
1.0192390622479
-0.242890896916925
-1.87460380993651
-3.45928944225876
-4.67786407045666
-5.35086025980638
-5.44862653456551
-5.07103996199798
-4.40373657724797
-3.6622925325977
-3.03787271001954
-2.65682297913402
-2.56251480126385
-2.72139412191743
-3.04838514688415
-3.44162864077826
-3.81466625797367
-4.1162217955401
-4.33293516679811
-4.47689754731062
-4.56525841078803
-4.60158311389821
-4.56723875126336
-4.42649250502053
-4.14301739092237
-3.70047275507019
-3.11779826269271
-2.45170585265415
-1.78389268729053
-1.19674924532392
-0.74631687147991
-0.442950291768794
-0.247777373203637
-0.0873413263840089
0.118196202120264
0.423492838193545
0.835116394265903
1.30647358724942
1.75333608504873
2.08513846014342
2.24125298409823
2.21922840670788
2.08437951114837
1.95640422054187
1.97666852934333
2.26649146853245
2.8897467765125
3.83146011166252
4.99864771633062
6.24247769796592
7.39441968898725
8.30544818807426
8.87753950843578
9.08019011571617
8.94989057288121
8.57547934911103
8.07558827882658
7.57529312566573
7.18770043384978
7.00330352017914
7.08673267611436
7.47819766729552
8.1961537870358
9.23850754774501
10.5815123795471
12.1776514899203
13.9553984547659
15.8239395099618
17.68434843134
19.4458557376004
21.0430895775395
22.4488991430412
23.6782919101459
24.7817869331955
25.8300054991978
26.8942420705518
28.0289766301558
29.261305066754
30.589440647673
31.9889765500596
33.423038384586
34.8518889832912
36.2390019880381
37.5530415596012
38.7671425589304
39.8575601723655
40.8033487088248
41.5879023432728
42.2022999344082
42.6494070442337
42.9467146520935
43.1254852818629
43.2245381732492
43.2789862403466
43.3067179027375
43.2972321158848
43.2075686493903
42.9681772085726
42.4981891335855
41.7259795269588
40.6086050244791
39.1436635987186
37.3694608860986
35.3533288420433
33.1721858015621
30.8924071455454
28.5565117734713
26.181595679238
23.7696363379072
21.3246778486655
18.8687686607294
16.4488524709895
14.1305226662118
11.9800441342959
10.041053458384
8.31496889207867
6.75347242450136
5.26763095881988
3.7523894266554
2.11919039950872
0.325680033744405
-1.60831037813481
-3.60477362425246
-5.55056992688546
-7.33152686231795
-8.86559890774972
-10.1235917764713
-11.1307056817343
-11.9493228174264
-12.6504050825722
-13.2849989478627
-13.8670479288518
-14.3739888428514
-14.7642227265567
-15.003501990287
-15.0885883837664
-15.057827909737
-14.9839193318765
-14.9515906397767
-15.0290192398687
-15.2442709271865
-15.5759666090999
-15.9617132643949
-16.3208491659207
-16.582589647084
-16.7089077174591
-16.7040135038919
-16.607878879742
-16.4775333514853
-16.3643971233484
-16.2970657385237
-16.2763298051216
-16.2838099855032
-16.2995624237411
-16.3199067245511
-16.3663988681173
-16.4805985150435
-16.7055969885835
-17.0615347161158
-17.5258086622214
-18.0277168638598
-18.4621310052342
-18.7194064710804
-18.721998405902
-18.4547691520296
-17.9771829205952
-17.4112679284618
-16.9075589739627
-16.599320467823
-16.5601676263713
-16.7797328169933
-17.1661561013344
-17.5749104313895
-17.8542055528398
-17.8914382333037
-17.6450519290349
-17.1517187770751
-16.507746272715
-15.8325824572327
-15.2280047832741
-14.7472183403379
-14.3837598123687
-14.0825911804505
-13.767853216935
-13.376232467191
-12.8835928023257
-12.3156511050693
-11.7396775431684
-11.2411122880649
-10.8941137415708
-10.7366392940682
-10.7583251405936
-10.9042701964594
-11.091960087388
-11.234282808051
-11.2604317860552
-11.1286534935469
-10.8290669034217
-10.3791022703138
-9.81650474614901
-9.19436121082551
-8.57972606712137
-8.05380445396985
-7.70927263541953
-7.64049402729284
-7.92522190858175
-8.60076583923217
-9.64169238535261
-10.9480137806134
-12.3512714459898
-13.6410319776104
-14.6075713863095
-15.090321147531
-15.0183888699854
-14.4305952363556
-13.4678529958176
-12.3386902795231
-11.2667805155371
-10.4349929705051
-9.94191865576242
-9.78340672578647
-9.86417966706044
-10.0353133519332
-10.1452983293208
-10.0883037229967
-9.8346007180417
-9.43443507546019
-8.99574067239441
-8.64471643502193
-8.4834081273307
-8.55838813196487
-8.84974331783028
-9.28195199704786
-9.75078546818727
-10.1557154015843
-10.4267930222802
-10.5383023466864
-10.5070389105993
-10.3786007293434
-10.2086563581252
-10.046735356011
-9.92776270967952
-9.87246419618502
-9.89368081752022
-10.0032608125268
-10.214444904838
-10.5372685724011
-10.9682919977427
-11.4793474548056
-12.0115310894912
-12.4795721470966
-12.7881539057019
-12.856887210148
-12.6463192786821
-12.1755682463097
-11.524045932778
-10.8148209457614
-10.1835425847863
-9.74203096610243
-9.54778627739213
-9.58913170150725
-9.79101464121317
-10.0400557938567
-10.2211834996255
-10.2541550199969
-10.1179918383027
-9.85521881963797
-9.55462423461361
-9.31863923307365
-9.22668401384217
-9.30707352486365
-9.52694876818105
-9.80338320262123
-10.0315476755901
-10.120098310361
-10.0216997730086
-9.74853130290243
-9.36801911632447
-8.98094849328188
-8.69002469084579
-8.56972290071447
-8.64696582889
-8.89752590570296
-9.25715098995994
-9.64168815026064
-9.96856858854996
-10.1731677503049
-10.2168020541138
-10.0869040843194
-9.7926974567769
-9.36044758173929
-8.83093492724303
-8.25901082003933
-7.71248809212632
-7.26673793998461
-6.99293445243021
-6.94130361284276
-7.12427277963508
-7.50614989270529
-8.00480619821187
-8.50708931540752
-8.89480753541362
-9.07402352520671
-8.9987231067119
-8.68143988035049
-8.18762419016771
-7.61582979766559
-7.07016056501717
-6.63345834896716
-6.349056570211
-6.21601227842593
-6.19839315263288
-6.24457484181885
-6.30905523264488
-6.36837731609696
-6.42494385065348
-6.49719760392499
-6.60019808475534
-6.72493272721888
-6.82592437364683
-6.8240847317524
-6.62608544564179
-6.15486259498124
-5.38085222803486
-4.34227183402102
-3.14591238837928
-1.94643241688841
-0.90961551934516
-0.170650707240112
0.199803106533138
0.211683988123014
-0.0504011552599432
-0.45216772553335
-0.845093732352482
-1.10125000574457
-1.1378050173152
-0.925796913252437
-0.483338506778835
0.141647799096478
0.891347589437316
1.71311429746574
2.56527821799508
3.41394203183008
4.22515163972057
4.9586545468722
5.56817550657131
6.00945149094606
6.2529619775144
6.29534992176591
6.16329079105796
5.90624186154384
5.57910119793261
5.22045884662796
4.8347991444068
4.38639155145015
3.80870054190412
3.02735351034635
1.98928786597446
0.687861774824147
-0.825308932745065
-2.44650874457745
-4.04245549355815
-5.48188764584843
-6.66596787695152
-7.54805415803848
-8.13738142742617
-8.48685871357429
-8.670492147308
-8.75896422801865
-8.80158327882809
-8.81957627651655
-8.81114686981466
-8.76468346292277
-8.67417311881667
-8.55066824514564
-8.4254369683412
-8.3436465921051
-8.35105792039528
-8.47893859406915
-8.73314884948588
-9.09175651390183
-9.51217553909835
-9.94501018932205
-10.3490663393231
-10.7015127900101
-10.99923920228
-11.2513218606183
-11.4665528344782
-11.6423416762943
-11.7607714363637
-11.7943440632726
-11.7194465908929
-11.531843987629
-11.2571999534001
-10.951302551622
-10.688671923613
-10.5430126654833
-10.5666517781045
-10.7770718208581
-11.1562806548337
-11.6638094011747
-12.2585095757137
-12.9202725517234
-13.6619269205895
-14.524247458463
-15.5523606001587
-16.758181753184
-18.0788832187967
-19.343906724641
-20.2615714733073
-20.4312013174833
-19.3798661569901
-16.6171056945818
-11.6985267305812
-4.29022636370264
5.77109212451373
18.4252735358098
33.3465547863439
49.91852088836
67.2360165570806
84.1447131112606
99.3252067020424
111.420050461753
119.191348359727
121.687081996692
118.389320952812
109.318092375967
95.0701835548956
76.7809165115448
56.0077649205781
34.546998055036
14.2074301820476
-3.42351805582444
-17.1806445469841
-26.4513498682822
-31.2117630609782
-31.9654043456767
-29.6028363634807
-25.2167703900397
-19.912985356487
-14.6525577727202
-10.1482663536472
-6.82245461868484
-4.81972109756542
-4.05862258708727
-4.30323590506273
-5.23727823591745
-6.52863326705388
-7.87818542515269
-9.05180061298761
-9.89704576891451
-10.3468959823482
-10.4122141302303
-10.1644781924422
-9.71093226735849
-9.16600276184809
-8.62454477853239
-8.14305576200933
-7.73360657844215
-7.37192878439679
-7.01677276559513
-6.63381081127875
-6.21553374065361
-5.78969091702299
-5.41268976572173
-5.14975084798693
-5.04859472331108
-5.11618098936637
-5.30749940735808
-5.53172328114824
-5.67525589327241
-5.63511447660907
-5.35183626028536
-4.8304760274341
-4.14190150648888
-3.40334360117983
-2.74447450920735
-2.270309674905
-2.03304060069517
-2.02129820612499
-2.16885903373852
-2.378066054657
-2.54882734575469
-2.60340273850338
-2.50006519832677
-2.23360831843445
-1.8255504655697
-1.31002364564091
-0.721792774883911
-0.0907243684445783
0.556643513724936
1.19141247889306
1.7776070004685
2.27322853427392
2.63923274241942
2.85459137347005
2.93195539418596
2.92682675517985
2.93446843410432
3.07270397195952
3.45386570848379
4.15354263054654
5.18579810403727
6.49333057023753
7.95684110358412
9.42188885215063
10.735792550036
11.7838600136597
12.5147262059709
12.9485572796417
13.1675625866148
13.2934019812826
13.4590328291502
13.7827662653594
14.3502519472481
15.20682226403
16.3592564289255
17.7835196429425
19.4340192382668
21.2506716231151
23.1623459276847
25.0880872710511
26.9394694924473
28.6272955082843
30.0735593496147
31.2262934049978
32.072430357693
32.6434195499888
33.0102254892088
33.2676915965467
33.5118626021324
33.8165291792112
34.2160174144609
34.699634849377
35.2195733996145
35.7096334820753
36.108413390102
36.3789396465845
36.517799616128
36.5504849918529
36.5147090297751
36.4380852585219
36.3189152219113
36.1178814594882
35.7644144979603
35.1759044227716
34.2829817187225
33.0517907855203
31.4954002193154
29.670673301058
27.6623622955107
25.5607457571999
23.4410460403827
21.3515197353722
19.3132534092271
17.3300036027114
15.4027025736504
13.5417778511638
11.771650431201
10.1252708611006
8.63108182014174
7.29851929548127
6.10932874735628
5.01984453813747
3.97475106299421
2.92767514103727
1.86045936851982
0.792683930417828
-0.223726943755353
-1.12421644864593
-1.85896824712336
-2.41748074837652
-2.84012405676653
-3.21087875597074
-3.63239922396168
-4.19132565625784
-4.92581225259207
-5.80703572607928
-6.74201179712725
-7.59788200458839
-8.24046412395074
-8.57492614425904
-8.57564042319888
-8.29573511970049
-7.85330816245806
-7.39862631898009
-7.07262684494159
-6.96973833649891
-7.11640822127639
-7.47114423634056
-7.94427727776967
-8.42896089357187
-8.83180946079758
-9.09313284763232
-9.1919455332254
-9.1373428943336
-8.95278958617499
-8.66162445768548
-8.28032419230788
-7.82174765461296
-7.30553932084718
-6.76919126789711
-6.27252589573343
-5.89096202613038
-5.69785159020775
-5.74136056886197
-6.02454169603653
-6.49691888461744
-7.06207516574271
-7.59991717803133
-7.99680865963923
-8.17376106838203
-8.10347390940043
-7.81100805881645
-7.35877954838916
-6.82215951859441
-6.26511955109336
-5.72486959853847
-5.21051333056626
-4.71493157517195
-4.23367579743003
-3.78175904614376
-3.40006621269796
-3.14743334362121
-3.08060816044029
-3.22976805344964
-3.57968531769561
-4.06492963827182
-4.58238725123729
-5.01791198911946
-5.27857376047105
-5.31965064473459
-5.15697405026988
-4.85996646594502
-4.5271955239874
-4.25241107615139
-4.09268256718796
-4.04990783998083
-4.07246007717263
-4.0765434620738
-3.97960916921988
-3.73373135512403
-3.34683417599887
-2.88398502267403
-2.44796330973653
-2.14556667849602
-2.05125498153525
-2.1809892254853
-2.48583371875026
-2.86793120468789
-3.21324794392244
-3.4291861708391
-3.47334784956397
-3.3632086436306
-3.16388399279539
-2.95961466426333
-2.82073592564495
-2.77928117534894
-2.82241823341696
-2.90522477348165
-2.97615335694471
-3.0034655150008
-2.99103616268059
-2.97693362748963
-3.01570247680461
-3.15215524701149
-3.39803430847997
-3.72180731450631
-4.05655336026621
-4.32347505837432
-4.46202438234987
-4.45466357367405
-4.33616813217788
-4.18336228385657
-4.08878514551688
-4.12793800685679
-4.3321229815405
-4.67672999857379
-5.08912450029949
-5.47317512393789
-5.74152778028063
-5.84413298974498
-5.78314684415688
-5.60942779161365
-5.40249359396892
-5.24160399346527
-5.17859014626659
-5.22215770460201
-5.33896456599822
-5.47041287522091
-5.55821235605758
-5.56868847092167
-5.50667588862954
-5.41410420152603
-5.35421799377712
-5.38761530134398
-5.54918154163663
-5.83455783583549
-6.20109226028568
-6.58259519060747
-6.91187229303909
-7.1421369829587
-7.25916371797029
-7.28003911655289
-7.23989705432343
-7.17285026631581
-7.09556288709044
-7.00067495702708
-6.86306768841361
-6.65643606581892
-6.37308145536851
-6.03816279762873
-5.71158110207132
-5.47545203068291
-5.41081443358535
-5.57155526425605
-5.96483376431483
-6.54513525228097
-7.22436368238225
-7.89484126901107
-8.45766049170494
-8.84703983626359
-9.04282408707118
-9.0676004993956
-8.97055674920713
-8.80504685332387
-8.60893887448567
-8.39531840589153
-8.15657944161408
-7.87919187997102
-7.56191042237197
-7.22880089425156
-6.9307054523484
-6.73356796679938
-6.69738077428247
-6.85336242578144
-7.18799672217372
-7.64048078340994
-8.11572399523713
-8.50978558144428
-8.7401940025832
-8.77139995487272
-8.62661305839869
-8.38148484743924
-8.14126392495336
-8.0088447829492
-8.05422922938675
-8.29514368672301
-8.69434652043762
-9.17321593462426
-9.63574263764861
-9.99399613149654
-10.1865037747606
-10.1845360461141
-9.98657543310591
-9.60606440866687
-9.05982567232865
-8.36338233666984
-7.53541197611879
-6.60859254074486
-5.64029716716867
-4.71559967588188
-3.9374689126779
-3.40418233564225
-3.17995322192174
-3.26898461188874
-3.60358129984754
-4.05302519485923
-4.452906421619
-4.64707245038375
-4.52921890365178
-4.07053836199351
-3.32426165505166
-2.40589746959407
-1.45649364126105
-0.601934711345123
0.0780754084689806
0.562157241864443
0.878802354455934
1.08295261567382
1.22777679785683
1.34224312789684
1.42178339861819
1.43385054710775
1.33452073597874
1.08841958425663
0.683500394014823
0.134820409336292
-0.523638529409975
-1.25494613183283
-2.03563623090988
-2.86512418138286
-3.76365978841662
-4.75913708356276
-5.86788661243159
-7.07751704603382
-8.33962577745875
-9.57662589286997
-10.7013634012272
-11.6429130144156
-12.3691223045981
-12.8972480469494
-13.2881186168827
-13.6251636675384
-13.9852063357742
-14.4110885354797
-14.8958674952856
-15.3845649244304
-15.7934660226568
-16.0407521647171
-16.0780490701233
-15.9119195635587
-15.6076950476513
-15.274068830489
-15.0333676833114
-14.9871225495877
-15.187923564479
-15.6261812413482
-16.2352425046393
-16.9122428522465
-17.5472716208093
-18.0514390542095
-18.3757082023141
-18.5161781548646
-18.5063173312071
-18.4006878241418
-18.2567574010554
-18.121117686216
-18.0241374516112
-17.9835202176122
-18.0135568866193
-18.1345102206537
-18.3766928591719
-18.7765038695913
-19.3657216487069
-20.1586620135313
-21.1426750420043
-22.2754706937715
-23.4890498258865
-24.6965178775981
-25.7964825926722
-26.6707875233808
-27.1745238848173
-27.1212809375215
-26.2699841380255
-24.3214412082662
-20.9324558091168
-15.7529265727607
-8.48666781225683
1.02990485083287
12.7444148953024
26.3196235491921
41.1000594111288
56.131182366232
70.2378347265973
82.1546410258026
90.6874469672299
94.8765666796036
94.1324786783139
88.3222797754743
77.7970155324869
63.3609720290005
46.1906132898318
27.7128895472326
9.45295361734902
-7.13654400372342
-20.846986731605
-30.8619107717426
-36.8542641777365
-39.009920088488
-37.9678610694212
-34.6860448659131
-30.2596237803094
-25.7290681253582
-21.9168397686933
-19.3230105252226
-18.0955191463772
-18.0735588854951
-18.8868363477311
-20.0825002322111
-21.2477241301227
-22.1000063962149
-22.5280312992973
-22.5803771558509
-22.4133604192502
-22.2189455764835
-22.1563906840178
-22.3067975806706
-22.6599952954693
-23.1318547506656
-23.6011211912183
-23.9508092315432
-24.1006475396873
-24.0225251872327
-23.7378690810129
-23.3018429224966
-22.7824131829943
-22.242099270917
-21.7273573502932
-21.2666533699995
-20.874988193716
-20.5609049498875
-20.3320058883301
-20.196381797902
-20.1594893625479
-20.2181092348635
-20.3542594047661
-20.5318083716617
-20.6971589655995
-20.7835238185771
-20.7169870564212
-20.4224404278762
-19.828581009966
-18.8726540355913
-17.506378018648
-15.7038670815483
-13.4707407158117
-10.8520068139757
-7.93557931727474
-4.84870405367013
-1.74593940604571
1.21062544792308
3.87590943758451
6.14609089829102
7.97650680356915
9.3878019746321
10.457539183414
11.2985763014745
12.0298679239759
12.7482947446449
13.5102464557859
14.3285309146608
15.1846772816911
16.0509190259517
16.9124518099651
17.7805702290301
18.6911219406479
19.6889033853976
20.8046443763885
22.0345848513264
23.3319003712849
24.6146349148974
25.7882434694176
26.7750928584429
27.5406579356517
28.1074980016794
28.5525024339172
28.9884641488532
29.5358474767733
30.2932806445303
31.3152002460652
32.6024166981067
34.1071279631913
35.7494937474034
37.4396459808971
39.0978536936495
40.666787586793
42.1131076106826
43.4198790007864
44.5749924490762
45.5622352874976
46.3601772537202
46.9501369446033
47.3298358823629
47.5259779855994
47.5984966447578
47.6320292674311
47.7153320143055
47.9147254550023
48.2508969033522
48.6879638806334
49.139692396373
49.4917396701373
49.633084809827
49.4865259839839
49.0283716887358
48.291076864475
47.3483198900621
46.2879592141467
45.1823769908639
44.0663754828388
42.9297423265783
41.7260446186266
40.3933642855071
38.8787904985216
37.1578765800355
35.2429127299635
33.1784732800707
31.0273646202891
28.8531588082916
26.7060882145069
24.6171987918673
22.6019924140681
20.6706091272074
18.8386096478845
17.1321084613736
15.5837607940345
14.2207494806353
13.050217555821
12.049430597553
11.1664018769494
10.3324154967144
9.48267464173404
8.57740873461677
7.61493221331855
6.63089846132587
5.68334565171083
4.82888180990595
4.0990577773671
3.48608610946809
2.94359579489497
2.40251477212837
1.79661862649587
1.08878183097505
0.288642802454633
-0.544792832922394
-1.31714968793555
-1.92532243047047
-2.28843942976206
-2.37305553141555
-2.20404834579067
-1.85730641035056
-1.43652136150537
-1.04204061895572
-0.74263832072982
-0.559978120107836
-0.470751739982208
-0.424772367283229
-0.371304982277158
-0.282999493118807
-0.168093401549669
-0.0665168906967654
-0.0321496554277889
-0.1090563460982
-0.311782293280006
-0.617815317440839
-0.975020836393152
-1.32057996806907
-1.60337466923422
-1.800640591865
-1.92228458617372
-2.00137952940006
-2.07500223490263
-2.16359763595197
-2.25782322243566
-2.31896623286793
-2.29361614297763
-2.13745464361859
-1.8390858361137
-1.43429706973533
-1.00424745738651
-0.656740424448933
-0.49593882804074
-0.590375696334566
-0.950202847880933
-1.52179714309758
-2.20202510900236
-2.86769436671331
-3.41042869685322
-3.76531950164799
-3.92395275782944
-3.92804831908953
-3.84699649592232
-3.7484403146121
-3.67343805625819
-3.62561143251677
-3.57782057203007
-3.4926906255805
-3.34772532035053
-3.15404610205641
-2.96059359682978
-2.84167055706536
-2.87246720265918
-3.10196003081721
-3.53349859911185
-4.12028892522034
-4.77723935895836
-5.40458133123937
-5.91462166542291
-6.25236790918638
-6.40368709174244
-6.38984335079981
-6.25256114803669
-6.0370249405453
-5.78021993118999
-5.50891012341186
-5.24675287952631
-5.02561564904495
-4.89396264409183
-4.91612173083084
-5.15990872079372
-5.67504582855883
-6.4692528689393
-7.49115626556869
-8.62817265153066
-9.72322672176982
-10.6077836592858
-11.1424665444269
-11.2529790811653
-10.949837115689
-10.3255027038752
-9.53001516007006
-8.73315534513891
-8.08492077900555
-7.68551645019254
-7.57191189490077
-7.7221970008694
-8.07353958455185
-8.54601788319552
-9.06381388169182
-9.56737564606759
-10.0145095598717
-10.3733496818055
-10.6136670451208
-10.703346609407
-10.6138059649947
-10.3330995796686
-9.88085955417492
-9.31720818866696
-8.73929396391559
-8.26364558813795
-7.9983293120257
-8.01350989655646
-8.32045030823232
-8.86658674115661
-9.54896969984125
-10.2420448332373
-10.8308465250946
-11.2391029051556
-11.4440079250674
-11.4743417373565
-11.3941325222279
-11.2782737936778
-11.1883999345117
-11.1566349334175
-11.1818668582641
-11.2387566259141
-11.2951024041779
-11.3301114544036
-11.3459224403945
-11.3676566850298
-11.4322334668842
-11.5710176330804
-11.7939449280269
-12.0820408389639
-12.3916716624085
-12.6690631833778
-12.8695773378768
-12.9744502542675
-12.9986720632329
-12.9869442170609
-12.9989944895337
-13.0894130627312
-13.2891523823874
-13.5951514961926
-13.9714806663772
-14.3611455981355
-14.7038624390223
-14.9531566211318
-15.0867852075495
-15.107470202865
-15.03504511055
-14.8946193751028
-14.7067308380875
-14.4841107961878
-14.2362756248478
-13.9791910901133
-13.7444054990366
-13.5815387574487
-13.5502435689189
-13.7021121036972
-14.0579013245893
-14.5887731347413
-15.210222238114
-15.7935305872838
-16.1932229620973
-16.2826839325182
-15.9865396160608
-15.2991841011163
-14.2836982984784
-13.0524380486882
-11.7369448804053
-10.4580223243259
-9.30563880773515
-8.33342934094249
-7.56617094693903
-7.01345147638283
-6.68093015818848
-6.57266466285867
-6.68287549786515
-6.98110429314301
-7.39869319988598
-7.82520433812611
-8.1203695264899
-8.14138373555298
-7.77892948724045
-6.99077450540803
-5.82113954225412
-4.39786527081351
-2.90641937302669
-1.54730388174957
-0.488695997165668
0.17240035673422
0.429670895617967
0.362272231791882
0.106436670489384
-0.187820083414382
-0.402129655390911
-0.48392964845565
-0.459490784249413
-0.422574859657085
-0.502983450235059
-0.825253040071139
-1.47048147158918
-2.45297284462355
-3.71839043448281
-5.16284545768223
-6.66521732397515
-8.12067208468724
-9.46361497542397
-10.6731021400583
-11.7609871148566
-12.7497133979869
-13.6500644374754
-14.4482731501404
-15.1073786171018
-15.5815916897023
-15.8371411751618
-15.8706232637748
-15.7171157233737
-15.4446216335042
-15.1369341606136
-14.871497077704
-14.7005564877361
-14.6423197082737
-14.6846654201539
-14.7988225322435
-14.9564132602844
-15.1420965503505
-15.3563705270133
-15.6079061275148
-15.8998520481255
-16.2174911626193
-16.5240896263361
-16.7680496070831
-16.8992887501535
-16.8884643036622
-16.7410957648404
-16.5004009866479
-16.2369392478861
-16.0282178790833
-15.9353131642599
-15.9848348068632
-16.162828241074
-16.4231550292482
-16.707875584547
-16.9727468109184
-17.2086327171169
-17.4504341517625
-17.769059519619
-18.2476503372645
-18.9485700928676
-19.8805859533391
-20.9753188063577
-22.0787568287747
-22.9586816433542
-23.3240138578455
-22.8491861385461
-21.1969878739629
-18.0370359556635
-13.0627922378979
-6.01519885675053
3.27771402501352
14.8407393604781
28.4769655146765
43.6973938563057
59.6819944206913
75.2990371591258
89.1979104847565
99.9706970520573
106.356427299761
107.447143074426
102.851996350228
92.7849136668562
78.0586357782209
59.9870954078897
40.2141955230785
20.4978238808996
2.48327450758185
-12.4993048862844
-23.5830967759589
-30.4371561537619
-33.2552139806625
-32.6677252083384
-29.5977231400496
-25.0897996566489
-20.1436277968318
-15.579067437467
-11.9508505534603
-9.51972365018248
-8.27630632324426
-8.00568082775104
-8.37568124369623
-9.03000417984893
-9.66837412322498
-10.0998732919219
-10.2617989450554
-10.2040870170228
-10.0469246915394
-9.92497116661209
-9.93420992995159
-10.0961355155093
-10.3489205727211
-10.5675294654899
-10.606258771702
-10.3501405922214
-9.75834141606714
-8.88467659971371
-7.86745977928627
-6.89093634062027
-6.13011564054262
-5.69660724709964
-5.60302508030848
-5.75760849136062
-5.99098359481006
-6.10682431357055
-5.94089384373681
-5.41066335614561
-4.54084963271899
-3.45766817807946
-2.35407372137716
-1.43687175000015
-0.871668654786158
-0.74161252517987
-1.03086738557577
-1.63555536873294
-2.39633743618376
-3.14074284838106
-3.72170402115965
-4.04183469532365
-4.0593934915153
-3.77889917870762
-3.23413965450455
-2.4721592042894
-1.54396085057478
-0.502938263598248
0.592264371117881
1.6759438455103
2.67934851848656
3.54199456278634
4.22733587364959
4.73638941416182
5.11234438303289
5.43199596593293
5.78488446422605
6.24613320189072
6.85207502860676
7.58761165058535
8.39079249873344
9.17434723478552
9.85771470081532
10.3987271314159
10.8134150419273
11.1760344510273
11.5982737312389
12.1941286352315
13.0422434635221
14.1586179803291
15.4891628316581
16.9249576974858
18.3354891291374
19.6090584478394
20.6869494849582
21.5798529939362
22.3610409331241
23.1389036328404
24.0187632469855
25.0675759231026
26.2937780958521
27.6486159568769
29.0470933474737
30.3993676889055
31.6399098199892
32.7434481008538
33.7228537133494
34.6118900435554
35.4416802445187
36.2215007552166
36.9318180023479
37.5318525232626
37.9777412767485
38.2429620963347
38.3318045690559
38.2797376369031
38.1402932878789
37.9639969374982
37.7782309194689
37.5763013301238
37.3199100187664
36.9536822162587
36.4257032171969
35.7059162213999
34.795346007955
33.7228656511205
32.5311448796097
31.2576623995349
29.9186338622079
28.5026144114919
26.976699929509
25.303062150695
23.4590816665804
21.4525843589555
19.3255771608648
17.1446709702141
14.981948027088
12.8939729853628
10.9073976889065
9.01699336810053
7.19705369854763
5.42177535543067
3.6863766706953
2.01985257503908
0.48294968178459
-0.849507940476132
-1.91631321402252
-2.69711768814437
-3.22783811609707
-3.59666443261121
-3.92038537273162
-4.30861921574983
-4.82874253615807
-5.48457705066765
-6.21695215068608
-6.9260571128232
-7.50739050733287
-7.88833939419835
-8.05263637865415
-8.04466445274049
-7.95273565422688
-7.87753395460762
-7.89677736521492
-8.03844063957136
-8.2720815075489
-8.52158362392863
-8.69492868338601
-8.72022829579567
-8.5747082749306
-8.29576074856139
-7.96971676715324
-7.7021567672144
-7.58028469491771
-7.64072130994811
-7.85413364971867
-8.13223330775582
-8.35496780151148
-8.40886993372006
-8.22386674292221
-7.79660163879502
-7.19312030448822
-6.53076863656975
-5.94577166333545
-5.55697016734047
-5.43653613162868
-5.59548285022761
-5.98670319878871
-6.52278376041314
-7.1016043021611
-7.63102743208988
-8.045336325958
-8.30992161732619
-8.4154835619341
-8.36678304711719
-8.17232044872779
-7.83987268944441
-7.37935579401686
-6.81059609688356
-6.17099401624851
-5.51781637421036
-4.92200261031642
-4.45403260956638
-4.16611514014844
-4.0771527140785
-4.16656608003951
-4.38011590977069
-4.64646692732243
-4.89912408928165
-5.09608490837517
-5.22997560230534
-5.32459819980146
-5.41880562724413
-5.54367879728166
-5.70203325764972
-5.85891259451235
-5.94790222629617
-5.8921984623319
-5.63357459194328
-5.15888149527722
-4.51394036865563
-3.79872311086624
-3.14416370952333
-2.67743041854041
-2.48667054908375
-2.59665410960173
-2.96321291806529
-3.48804826458806
-4.04855878249707
-4.53237237042473
-4.86515209706434
-5.02336748668967
-5.02973745739204
-4.93548753876472
-4.79787244011655
-4.66200230979808
-4.55289306336371
-4.47845925960557
-4.4393341158557
-4.43900727253411
-4.48857505449596
-4.60368955247442
-4.79541814313571
-5.05986263988279
-5.37223889568294
-5.68936322681638
-5.96089951167521
-6.14582230690612
-6.22797101999552
-6.22434876255441
-6.18208847828798
-6.16403968745877
-6.22734422183225
-6.40246893566863
-6.68051199952296
-7.01378176431436
-7.3296962273652
-7.55307038243677
-7.62895359747003
-7.53841010330607
-7.30264516472307
-6.97524568568193
-6.62626888635971
-6.32411806972743
-6.12106613065101
-6.04622838315766
-6.10661977114524
-6.29383783805796
-6.59206956557215
-6.98325316062232
-7.44722317787589
-7.95758481287293
-8.47657576645392
-8.95318074405246
-9.32779936152252
-9.54412067217806
-9.5654745110986
-9.3901408529983
-9.05914815651502
-8.65165332532089
-8.26686827444484
-7.99653624615808
-7.89630004952369
-7.96600341748168
-8.14691857421481
-8.33848437303277
-8.43022902302882
-8.33875190189689
-8.03724424614207
-7.56709384563741
-7.02706323532119
-6.54332087190885
-6.23041819172605
-6.15654443083285
-6.32474453869058
-6.67585520172821
-7.11102769830081
-7.52493614263004
-7.83762811152837
-8.01443885453397
-8.06862511548845
-8.04813822123898
-8.01352330064419
-8.0162291425804
-8.08505513083352
-8.22408341643772
-8.42033705996512
-8.65573135014681
-8.9169364300812
-9.1985560868777
-9.49852662925925
-9.80833035396659
-10.1030311294418
-10.3363929780704
-10.4444819942733
-10.3580217882399
-10.0205271780116
-9.40690337315939
-8.53647179642678
-7.47559124708012
-6.32799717208584
-5.21483435017315
-4.24973426197747
-3.51585922745554
-3.05100540904644
-2.8440549013829
-2.84246461265061
-2.96738616706521
-3.13135304610531
-3.25358145598909
-3.26958689701786
-3.13435332533327
-2.82075057435166
-2.31631674873377
-1.62135009644956
-0.749666077827775
0.268761548093265
1.38564433229564
2.53537315908587
3.6407541548847
4.62312379189959
5.41444472956641
5.96772255556035
6.2622434449635
6.30182309395092
6.10685425242897
5.7033042998153
5.11289088804059
4.34804464803332
3.41331487187662
2.31241558702135
1.05802558762376
-0.319600753215379
-1.76886940100956
-3.22002421906381
-4.59499267872334
-5.82124056418891
-6.84542994568069
-7.64259083368577
-8.21802915353588
-8.60178517143486
-8.83807133827464
-8.97365316869638
-9.04902966349361
-9.09472693586324
-9.13276938918604
-9.18128787072342
-9.25898134575887
-9.38624911286864
-9.58136881318091
-9.85266309408982
-10.1901401444307
-10.5613492197608
-10.9152883531091
-11.1951877851607
-11.3569905962283
-11.3871262531122
-11.3122889242415
-11.1960245271446
-11.1214426465566
-11.1647200493575
-11.3681478534488
-11.7225032839964
-12.1658722412926
-12.6005703665705
-12.923457965982
-13.0599743684382
-12.9904385208309
-12.7593736511694
-12.4642561881462
-12.2272496878132
-12.1594832077448
-12.3299560679246
-12.7493207461221
-13.3734495570342
-14.1248031759909
-14.9234761424784
-15.7163447628311
-16.4930977356861
-17.2820015297588
-18.1247187768015
-19.0362173274284
-19.9605810687213
-20.7349212819254
-21.0714408085745
-20.5631956756672
-18.7142057078022
-14.9911074175943
-8.89216894943882
-0.0292425834105838
11.7828413887799
26.4383645753183
43.4687189133394
62.0058101257852
80.8012972510627
98.3159282604403
112.879622193466
122.905023701405
127.120739041153
124.781270902808
115.812117518607
100.859873539158
81.2346363876945
58.7510123688633
35.4911114269353
13.526141972294
-5.35878898183087
-19.8907914668156
-29.4472915072547
-34.0827866095056
-34.4431832192607
-31.5904932377219
-26.7792766452258
-21.2337954852629
-15.9693676711805
-11.6854113779456
-8.73689084768362
-7.17189131419894
-6.81101404077809
-7.34135141535366
-8.40277853113743
-9.65362808432058
-10.812380256183
-11.6787160309274
-12.1399213838403
-12.1677926078742
-11.8086639346944
-11.1669728618363
-10.3822834661917
-9.60117493485112
-8.9480025921863
-8.50069418250795
-8.27798997342477
-8.24221211451174
-8.3172209507384
-8.41617105395727
-8.47003753784861
-8.44733767922393
-8.35851859466737
-8.24408891644744
-8.15160509631346
-8.11072634491776
-8.11611830103871
-8.12482427439502
-8.06912123084029
-7.88002154391924
-7.5126671653113
-6.96428248652312
-6.27821044429201
-5.53268082718131
-4.81841193208414
-4.21298204731722
-3.76083153085952
-3.46549794923845
-3.29606531888864
-3.20449069288782
-3.14643569581786
-3.09706852471453
-3.05556722535083
-3.03692760091646
-3.05519070103638
-3.10604051887734
-3.15723305018038
-3.15221721194546
-3.02677016260944
-2.73268562663705
-2.25892958258198
-1.64087005663642
-0.952337214597851
-0.281855238474044
0.299160796058822
0.764698058391741
1.14791066394551
1.53413380248489
2.03431427955621
2.74722259540724
3.72308187055331
4.94109410382944
6.30899475124537
7.68578938895463
8.92139030941601
9.9011902789695
10.581528827504
11.004457423091
11.2866686203623
11.5858549967458
12.0551682944509
12.8002100996835
13.8518198537969
15.1623935345137
16.6256639198929
18.1125310452841
19.5109686602706
20.7574662205224
21.8508425299909
22.8454026089249
23.8272661446017
24.8829273613841
26.0709109626634
27.4052795465028
28.8547390860357
30.3552155554393
31.8292656433695
33.2041531314915
34.4222935180454
35.4420904938629
36.2319987723017
36.7638046083359
37.0111912865206
36.956559987676
36.6041759342208
35.9933313761342
35.2035845992051
34.3462680097697
33.5416754367267
32.8875543620054
32.4290980603763
32.1414169755064
31.9318123717037
31.662336718022
31.1858139488472
30.3836671275195
29.1934547934924
27.6180209931804
25.7149486259029
23.5719254032891
21.2781192378551
18.9021738783925
16.483980142162
14.0414361109411
11.5873365528242
9.1476393523638
6.77205356315392
4.53122786852019
2.50050872381852
0.736078374897078
-0.7471038269448
-1.98627879080027
-3.06534678149488
-4.0933586012738
-5.17347572078399
-6.37250674397604
-7.70122329382035
-9.11206453447375
-10.5148467660732
-11.8049534088286
-12.8944706947632
-13.7362234723834
-14.3336207572901
-14.7343602135997
-15.0114626449746
-15.2390174120688
-15.4712555760412
-15.7318341832601
-16.0161010201001
-16.3039955232313
-16.5770465526545
-16.8314695204556
-17.081420594913
-17.3511756956205
-17.6602271362347
-18.0086851166093
-18.3704230572409
-18.6980318850184
-18.9382994657742
-19.0520514066813
-19.0300385770394
-18.898060073232
-18.7089034934893
-18.5240178283859
-18.3918845374639
-18.3312437559082
-18.3253498125759
-18.3292331485171
-18.2872184327693
-18.1543705878107
-17.9142402626451
-17.5865895697705
-17.2222354301573
-16.8866534606708
-16.63807314095
-16.5080155751166
-16.4916117918533
-16.5515428948818
-16.6341691522676
-16.6914107386986
-16.6993979798379
-16.6660909401978
-16.624631947552
-16.6152730459938
-16.6637221544111
-16.7654948529247
-16.8835473162086
-16.9610374235751
-16.9447292829174
-16.8098419605188
-16.5759109399775
-16.3060816413215
-16.0883284703608
-16.0042595229644
-16.0966616377412
-16.348408156192
-16.6818972596183
-16.980875461932
-17.1280309053529
-17.0454348120043
-16.723348028561
-16.2268116503537
-15.6773410690158
-15.2159242353516
-14.9600548912858
-14.969353437902
-15.2309055213271
-15.6681863127881
-16.1691133736325
-16.6224840955836
-16.950032686957
-17.1240659769552
-17.1667195204218
-17.1337538478749
-17.0908627934444
-17.0919952542661
-17.1669432938072
-17.3206032750096
-17.5410143050408
-17.8097715342464
-18.108120451784
-18.4149534855115
-18.6976493412075
-18.9010548092921
-18.9419157124749
-18.7147209163144
-18.1106363279608
-17.0456533881651
-15.4895545065111
-13.4857314918852
-11.1539802023906
-8.6733699282837
-6.24839712431727
-4.06692471871631
-2.26131206512277
-0.883733841229529
0.0971545641970657
0.777434658975782
1.28324806531652
1.73156849307834
2.19902366619749
2.7081941323648
3.2343203935135
3.72789415285298
4.14296960912786
4.45939127669147
4.69019888122426
4.87207641676089
5.04418284672252
5.22584949831436
5.40412670771916
5.53769682354349
5.57621635520946
5.4870699622147
5.27793210356802
5.00488344489256
4.76140686276874
4.65103853764343
4.75284731402031
5.09190322328891
5.62549933748031
6.25072165230046
6.83183074109317
7.23916985979521
7.387157969591
7.2588539821771
6.90885518695854
6.44366342551473
5.98654316244081
5.63929219293145
5.45409043728147
5.42439658559479
5.49644922809768
5.59528848435997
5.65436722866194
5.63755928396565
5.54648001568609
5.41245437115979
5.27837881374968
5.17888555402602
5.12679918353387
5.11050228688326
5.10207084651722
5.0717413334803
5.00193951449554
4.89451405698278
4.76781590838939
4.6447490552194
4.53713950377619
4.43393270374533
4.29973206683738
4.08615823932184
3.75289939911203
3.2904812944817
2.73497786085503
2.16720391675178
1.6946860756716
1.42161991855687
1.41717485484769
1.69364468804188
2.20252191830765
2.85000106246948
3.52631417028066
4.1383617020055
4.63411544145674
5.01058131338243
5.30349972065749
5.56401352552769
5.8324964735565
6.12062075075423
6.40918208010918
6.66260660611781
6.85402977079174
6.99009427021881
7.12401802852099
7.34939121797612
7.77431422642385
8.48337327302221
9.50059153512647
10.7675292164071
12.1463906992806
13.4496384314437
14.4881521765149
15.1228780530538
15.3028886745598
15.0767606281818
14.5729468571951
13.9553753303875
13.3691037635251
12.8943706769522
12.5244344174349
12.1741558719775
11.7154093779008
11.0261002689646
10.035205767385
8.74831019354724
7.24565479977885
5.65484902078865
4.10927837416123
2.70765573208535
1.48871319156145
0.428655948616301
-0.539610877357098
-1.4940782300458
-2.49067435948263
-3.54166696328206
-4.61242072905671
-5.63635717232176
-6.54134251080986
-7.27706019320704
-7.83333094582511
-8.24332072812944
-8.57139069416276
-8.89080978641443
-9.25981902300344
-9.70463186056895
-10.2150095654245
-10.7532121365126
-11.2721584250233
-11.735324318275
-12.1304862472991
-12.472077160771
-12.7916713930388
-13.1210536858748
-13.4753881851856
-13.8438579111701
-14.1918410260111
-14.4736731911183
-14.6505225831892
-14.7058326024527
-14.6519905480905
-14.5257246100445
-14.3744902354135
-14.2398019247818
-14.1447137880009
-14.0910765916915
-14.0683739429321
-14.0711497420963
-14.1180048264337
-14.263543850065
-14.5964061506615
-15.2211682301766
-16.2276992479875
-17.6561758899281
-19.4675876356754
-21.5275763672444
-23.6066935273702
-25.3946027888408
-26.5217487400802
-26.5813121903995
-25.1473564003886
-21.7908560627503
-16.1013338514718
-7.72496798574099
3.57237290533007
17.8175143908335
34.7314037672011
53.6462199737336
73.4714447526565
92.7376483696028
109.73027946037
122.701646818438
130.125569374103
130.944298938182
124.756421251885
111.907202135679
93.4642093041155
71.0840691988868
46.795175848544
22.7331634028998
0.87073123539591
-17.2180056619845
-30.5251151312294
-38.6862099462885
-41.9605557437985
-41.1236787893101
-37.2969686749831
-31.747793562982
-25.6950488850296
-20.1495596856795
-15.8089370578231
-13.0152755960969
-11.7736033628379
-11.8203726015648
-12.7249964783499
-14.0038097176332
-15.2252110053679
-16.0874707429578
-16.456802471037
-16.3621149762834
-15.9526909972406
-15.4334104391935
-14.9966069888896
-14.7687990228568
-14.7846527861188
-14.9915681640186
-15.2791174213072
-15.5210111034165
-15.6150926660175
-15.5093413406158
-15.2077914086503
-14.7574954049784
-14.2237927024541
-13.6643229641219
-13.1115848471008
-12.5697526127515
-12.0254563697503
-11.4665652095581
-10.899872223101
-10.3591931160511
-9.89950932471602
-9.57877066695897
-9.43439435899848
-9.46409622861788
-9.61933641445863
-9.81487870371949
-9.95171268341247
-9.94541647293541
-9.74998213860664
-9.36889534947697
-8.85003686493523
-8.26684952972317
-7.6929999656592
-7.17977456825974
-6.74401940857202
-6.37010159189402
-6.0237622817994
-5.67108021478616
-5.29403890063428
-4.89617160109765
-4.49656778981257
-4.11594194527247
-3.76196985137266
-3.42115370186479
-3.06127244125475
-2.64363532724731
-2.13999946696154
-1.54684745293818
-0.890552223658929
-0.220468572758477
0.408178876754453
0.955544833464048
1.41465433676191
1.8184866604462
2.23369316884484
2.74258343093442
3.4189024293523
4.30502831951842
5.39806368708144
6.64983871198053
7.98155154781605
9.30877318086572
10.5685440884562
11.7389808031431
12.8440700696966
13.9416282123758
15.0988039813691
16.3643928702232
17.7485278784389
19.2174488285989
20.7051929174496
22.1375274003676
23.4587940523458
24.6513033214578
25.7398335064785
26.7794976744891
27.8315518544368
28.9362290952377
30.092708884568
31.2535869798719
32.3358641696571
33.24455245858
33.9005901416467
34.2633451940012
34.3400076736004
34.1788774436777
33.8492779363945
33.4155851714202
32.9149891781287
32.3472531256024
31.6802024224191
30.8684932693018
29.8777604612534
28.7038562844813
27.3787661243853
25.960331510103
24.5098890831392
23.0673759507617
21.6349553286471
20.1770230598419
18.637792406258
16.9701941512284
15.1645922494247
13.2650092940253
11.3647176152784
9.58075655321898
8.01527369693421
6.71730050452362
5.65935039817196
4.73858482857659
3.8037782315796
2.70002716575859
1.3166283111148
-0.377677914921569
-2.32342046518041
-4.3860512083954
-6.39257757627911
-8.17688427259341
-9.61965704048026
-10.6716470676611
-11.3550820192337
-11.7452326305181
-11.9402622445649
-12.0306199935601
-12.0783136484465
-12.111731028752
-12.1351192323374
-12.1460854406206
-12.1518637492113
-12.1764765912078
-12.2554889212803
-12.4207850876745
-12.6823415478122
-13.0155340024258
-13.3605048771005
-13.635339248979
-13.7592041799384
-13.677490396962
-13.379981408834
-12.9054615278073
-12.3309547835134
-11.7491884201763
-11.2420213904603
-10.8590351990249
-10.6086446717115
-10.464417163345
-10.3833561792974
-10.3279950195388
-10.2824252459241
-10.2548787651876
-10.2654034360602
-10.3240864112216
-10.4101486102588
-10.4627984567896
-10.3905225263851
-10.0980524668262
-9.52255471762718
-8.66582978737092
-7.6095410725687
-6.50580247319585
-5.54393317469272
-4.902696495797
-4.70271735523462
-4.97404903139578
-5.64895704732832
-6.58167895782982
-7.58815206614759
-8.49256659978935
-9.16622890300992
-9.54794426558722
-9.64231606956327
-9.50010217408498
-9.19021153889923
-8.77440268554441
-8.29318972301637
-7.76613066766531
-7.20365801423109
-6.62319503230018
-6.06112048078788
-5.57447536664282
-5.23096723282265
-5.09079626687336
-5.18714805848965
-5.5127269546597
-6.01744751022718
-6.61839060680797
-7.21891572468171
-7.73084773027648
-8.09284844496487
-8.27967610405004
-8.30049272897665
-8.1884226617242
-7.98657076651004
-7.73641336126727
-7.47259136030423
-7.22452669215843
-7.02162433193862
-6.89687176049995
-6.88443099922443
-7.01009637114401
-7.2777766668314
-7.65833701879103
-8.087471304937
-8.47634322111676
-8.73368690295283
-8.79306247867244
-8.63614058079361
-8.30341247844286
-7.88746512569696
-7.50967830377159
-7.28694172413085
-7.29866095081896
-7.56445458577488
-8.03940960528639
-8.62789810375354
-9.21094765210206
-9.67805461200556
-9.95338313226562
-10.0087206768082
-9.86055945664014
-9.55453368603349
-9.14497769516764
-8.67872819682701
-8.18981160227761
-7.70625436622888
-7.26416132984688
-6.92010283415918
-6.75271506433765
-6.84859815099861
-7.27456946016826
-8.04527335994998
-9.09907761715756
-10.2941716417976
-11.4307635003369
-12.2961623998451
-12.7205932351771
-12.6262930366922
-12.053153006325
-11.1511046606925
-10.1403446448512
-9.251353052597
-8.66337545969487
-8.46016480280892
-8.61551641046635
-9.01103029120738
-9.47826757104159
-9.85041744533521
-10.0068442600773
-9.89771044685397
-9.5436850404014
-9.01462577853605
-8.39783093441373
-7.76867698895976
-7.17369876791463
-6.62990631178693
-6.13710415237457
-5.69499056367953
-5.31563431595387
-5.02470660744026
-4.8502406883608
-4.8035017620575
-4.86053934927346
-4.95360491582999
-4.97847029639526
-4.81778560918254
-4.37411786458994
-3.60175811681998
-2.52573639628269
-1.24030473850309
0.113744910690542
1.3858136619325
2.45388972013065
3.25162601671118
3.77551295749918
4.07115347236227
4.2053851303702
4.23577332494896
4.18897585195016
4.05489750828931
3.79665257519247
3.37025355209145
2.74508750901745
1.91731284939832
0.912241800901485
-0.223397631868943
-1.43460839983973
-2.6704395980579
-3.89039432112652
-5.06312234791993
-6.15949817826629
-7.14494933871818
-7.9762697153301
-8.60604586943737
-8.99429432744442
-9.12352105567738
-9.01151059324763
-8.71638601176608
-8.33072944928585
-7.96507076775001
-7.72472144055571
-7.68654005202776
-7.88276930190106
-8.29715800095965
-8.87461295420455
-9.54091778379009
-10.2253692361084
-10.8780553122008
-11.475591212328
-12.0138383943654
-12.4916943451538
-12.8941494815963
-13.1835802464063
-13.3051098586952
-13.2059213865428
-12.8620479266521
-12.3020575006197
-11.6169480851986
-10.9496167705121
-10.464088476715
-10.301982592111
-10.5389865303037
-11.1554957236997
-12.0323638382819
-12.9756448602084
-13.7653665911423
-14.2155623366647
-14.2286500058101
-13.8282799736025
-13.1607277721552
-12.4638963908656
-12.0121508239266
-12.0516190729321
-12.7422243167817
-14.1191215492093
-16.0788349834572
-18.3871963491381
-20.700554232398
-22.5908842201122
-23.5693097168609
-23.1089212426245
-20.6734925762023
-15.760975665037
-7.9680266257482
2.92552897969306
16.863492158303
33.4321072987609
51.8168552362014
70.8208635453392
88.9575895724225
104.61276077929
116.251437770697
122.632242893031
122.987443888406
117.135690780246
105.510186180684
89.1028352243109
69.3390351378559
47.9056695213085
26.5571165166881
6.92293062949519
-9.66152570043089
-22.2830332632976
-30.5224701868928
-34.4622907786163
-34.6296143330295
-31.8847162690129
-27.2732472788278
-21.8658286082967
-16.6098838033912
-12.2157778902549
-9.0930692508074
-7.34365734906886
-6.80803195627029
-7.15064029622092
-7.9630224729264
-8.86098211652456
-9.55563392090137
-9.88687215617848
-9.81899721542727
-9.40829826355575
-8.75816556011266
-7.97744722961316
-7.15312386650427
-6.34131395509361
-5.57381682067658
-4.87282029858854
-4.26491335356096
-3.78708276836608
-3.48127149333784
-3.37916649596618
-3.48348666812912
-3.75431177731324
-4.10774789769805
-4.42974613327698
-4.60199446229824
-4.53195445948014
-4.17723482400539
-3.5562372793338
-2.7417033147285
-1.83971904761443
-0.961684141439822
-0.198806176186467
0.392946379707055
0.794091986233406
1.01135481421048
1.06240840443763
0.963420491917297
0.724983601478789
0.357588006108096
-0.11678967113849
-0.653233082951587
-1.17895805040457
-1.59895780599016
-1.81241819319915
-1.73603058767459
-1.32731304429423
-0.600083306097031
0.374149618324727
1.48104364383748
2.59128079790617
3.59334189592127
4.42093123905559
5.06634460421044
5.57589557746517
6.02974182994914
6.51370027314115
7.09297137249765
7.79633405173286
8.61495551215866
9.51424826301533
10.4524253736036
11.3974101887206
12.3352956518554
13.2678862070788
14.2020215435161
15.1370623611435
16.057563782102
16.9356347527631
17.7429479240793
18.4676985754049
19.1289107889064
19.7806646873055
20.5022975874997
21.3762889879493
22.4610967849371
23.7691190663125
25.2586851360406
26.8439192139756
28.4195865677132
29.8923807426062
31.2077042038592
32.3626208836622
33.400593215124
34.3900308596385
35.3943434891445
36.4441882092428
37.5218973929613
38.5638467454178
39.480176739041
40.1850132412787
40.6263835570688
40.8048570840586
40.7737238765086
40.620050246518
40.4329686881647
40.2704850088337
40.1369362030459
39.9794917537614
39.7050909092051
39.211691012985
38.4225996583941
37.3117927033756
35.911604387784
34.3006566772555
32.5770470782128
30.8270185155731
29.10061136709
27.4026749986614
25.7013812232069
23.9495510072364
22.1093983008488
20.170533712905
18.1544254723963
16.1044327687217
14.0664485115937
12.068757108639
10.1097830847146
8.15925986392163
6.17322516603735
4.11784082308091
1.99318374894159
-0.152573161082762
-2.22520516604898
-4.10359103805323
-5.67054136282615
-6.84538906534268
-7.60752411378411
-8.00308195492978
-8.13285465000338
-8.12596152202604
-8.10839690131961
-8.17656263750724
-8.38311266961707
-8.7372509902598
-9.21627686471564
-9.78177561936234
-10.3935270976105
-11.0167140844261
-11.6219854774266
-12.1814763838687
-12.6654386610598
-13.0431370034277
-13.2888078053846
-13.3903096050755
-13.3562053063165
-13.217247328555
-13.0203759968529
-12.816402779789
-12.6452959415492
-12.5243598676402
-12.4440000555045
-12.3732445651099
-12.2735485980773
-12.1160279035265
-11.8955957734003
-11.6363311981549
-11.3855454324183
-11.1982722958608
-11.117689192949
-11.1588413968296
-11.3021753454989
-11.4998996509644
-11.693228437296
-11.83405158925
-11.9025116895606
-11.9133961008771
-11.9086374136856
-11.9386865893904
-12.0398615938722
-12.2163953805022
-12.4343159131112
-12.6300741816493
-12.7314465816612
-12.6835889213756
-12.4709340732593
-12.126757927406
-11.7263383487416
-11.3653033850212
-11.1300658150576
-11.0702988476201
-11.1830199931522
-11.4139682283628
-11.6758723171583
-11.8771884042642
-11.9512759127191
-11.8761393664033
-11.6785826930843
-11.4223271402522
-11.1851541285532
-11.0335394268221
-11.003519703796
-11.0937674605402
-11.2721525477014
-11.492178086833
-11.712346955496
-11.9108698063043
-12.0903189381607
-12.2710310416341
-12.4766878608249
-12.7187326219467
-12.9867580930017
-13.249478464617
-13.4663962235513
-13.6056730681539
-13.6609059235633
-13.6596010388971
-13.6590700639037
-13.7301377714705
-13.9337400100533
-14.2984693447559
-14.80724496667
-15.3984007928995
-15.9815478212686
-16.4633118592297
-16.7743961467614
-16.8887517073035
-16.8282775769529
-16.6515600067276
-16.4309230239873
-16.2263770269485
-16.066192889464
-15.9412171441329
-15.8146230748913
-15.6427247324794
-15.3982136988339
-15.0863912055103
-14.7479229730881
-14.4471205166307
-14.2505226652096
-14.2042797178231
-14.3190925523099
-14.5682917012531
-14.8994873733169
-15.255136315719
-15.5941533941598
-15.9063322391571
-16.2138833696333
-16.5590505210637
-16.9820299728732
-17.4974319770346
-18.0786412949864
-18.6569234936838
-19.1366883579848
-19.4220408159374
-19.445250745402
-19.1869963269975
-18.6814906273104
-18.0054288875323
-17.2556044392023
-16.523710294381
-15.8770705737525
-15.3510305263633
-14.9537919672869
-14.6795222970194
-14.522484270945
-14.4849687314968
-14.5750086475146
-14.7948892954208
-15.1261135776049
-15.5186077492103
-15.8905930290453
-16.1413329686567
-16.173730062337
-15.9196134174809
-15.3590725164441
-14.5268546896795
-13.5031010434567
-12.3911383349235
-11.2897766759012
-10.2697808735596
-9.36286593583456
-8.56698959841523
-7.86548984320032
-7.25213984884748
-6.75166152865932
-6.42671317968509
-6.36736562181778
-6.66578795180708
-7.38476670245072
-8.53146621295992
-10.046310519053
-11.8115212151163
-13.6767236803319
-15.4929156459377
-17.1433719546402
-18.5617590647293
-19.7330422505898
-20.6793801557376
-21.4383776363193
-22.0429093165306
-22.5099032757047
-22.8410900041053
-23.0336366093792
-23.0947035863199
-23.0526566790435
-22.9593543992912
-22.881873598235
-22.8865574819105
-23.0214374836056
-23.3035744488406
-23.7155896359425
-24.2117238085129
-24.7299382714086
-25.2045068004754
-25.5740887381647
-25.7830948201619
-25.7779112431364
-25.5024829284561
-24.8984939853848
-23.9135014902472
-22.516582445591
-20.7168833950153
-18.5777135927
-16.2188646990381
-13.8030033171399
-11.5073032158522
-9.48703074216099
-7.84145445871452
-6.59275164959719
-5.68524333032971
-5.00628130713843
-4.42333794760322
-3.82653124663419
-3.16378042902527
-2.45783601957578
-1.80000679066779
-1.32269904311305
-1.1594041822636
-1.40427586051974
-2.08279329117237
-3.14058781599505
-4.45099548304913
-5.8356207193969
-7.08832895537947
-7.99294613122579
-8.32856338200762
-7.86243908309096
-6.33691396705343
-3.46132976919037
1.07886642270112
7.58655743875508
16.288602082805
27.2502739673975
40.2865035307915
54.895266260871
70.2390529815861
85.1922156545143
98.4561932820185
108.725728085553
114.873881468366
116.117973325185
112.134698624059
103.10752760561
89.7062080640277
73.010013551228
54.3904319940439
35.3673382001586
17.450240368494
1.97691802649759
-10.0340068766943
-17.9956514951896
-21.8096841312122
-21.8533922134038
-18.8959603855026
-13.9578818820151
-8.13966432572072
-2.45203358110015
2.32153603490056
5.7071885723766
7.55785785579275
8.00957831886824
7.39406682002785
6.13264770553322
4.63758369204866
3.24088795435078
2.16001037070193
1.49819277281091
1.26851733519242
1.42701356834982
1.90185773233415
2.61114168525801
3.46842598461897
4.38085120015331
5.2472348063415
5.96273781836919
6.43291952832696
6.59481054840079
6.43802401937621
6.01682021313817
5.44564748239635
4.8758914101871
4.45867016333185
4.30465130421953
4.45422355608807
4.86859765752689
5.4453918848808
6.05365784147231
6.57643123231405
6.94633288897864
7.16239421401567
7.28310007492732
7.39909948214957
7.5960418836958
7.92105091263135
8.36446850546109
8.86257864864728
9.31940633653195
9.6392181772715
9.75820251641488
9.66477228753159
9.402374019102
9.05491578389442
8.72076576654638
8.48474911091076
8.39761176349325
8.46917708253501
8.67612622162921
8.97989380625003
9.34659278680459
9.76055753558628
10.2261838484751
10.7580131746617
11.36425787577
12.0319388156597
12.7211918694154
13.3723312093838
13.9236303118527
14.3329276007276
14.5942089748059
14.7421470837064
14.8424063813575
14.971256587004
15.1922415977827
15.5386620751569
16.0082039400884
16.5712822149593
17.1894162998979
17.8360984725691
18.5115384280433
19.2448425746394
20.0819886059996
21.0637036293207
22.2018027738302
23.4637839055084
24.7728353819501
26.0248283650754
27.1174484926533
27.9817792803986
28.6051784270091
29.0368054739402
29.3729336883332
29.726301842454
30.1896697576667
30.8061151359502
31.5563622557629
32.3672625489984
33.1377264782004
33.771940405335
34.2071788086589
34.4260460628128
34.4496020940943
34.315789144006
34.0534660796191
33.6636880289783
33.1162790779598
32.3630452297866
31.3621013327178
30.1033948944928
28.6250046167446
27.0130935140621
25.3842358320479
23.8552144526549
22.5101008031786
21.375734202985
20.414007038413
19.5335809809504
18.6170391044089
17.5545364344126
16.2733814432305
14.7548829640509
13.0343025445173
11.185314924714
9.29524038059041
7.43989651815612
5.66635315253686
3.98843366879202
2.39488087871003
0.865609286653352
-0.611000774678208
-2.02655739439741
-3.35102021597202
-4.541236463509
-5.5561488415948
-6.3727823699141
-6.99688388884903
-7.4641264653808
-7.83139689177086
-8.1614668822598
-8.50677365699522
-8.89813277029739
-9.34199029993926
-9.8262339277552
-10.3310892781624
-10.8396844704015
-11.3433593340264
-11.8396099446824
-12.3244910333742
-12.7844761728947
-13.1934958891622
-13.5185333020724
-13.7327373725428
-13.8306811057741
-13.8383450935121
-13.8117403456691
-13.8223537925942
-13.933127580913
-14.173247427798
-14.5216512285295
-14.9069237859431
-15.2256574264888
-15.3744267874973
-15.2849949965648
-14.9505282067211
-14.4332214622774
-13.8498625874482
-13.3393411495101
-13.0224125262079
-12.9669078158902
-13.1698007037545
-13.5615615696798
-14.0303278114392
-14.4567917793813
-14.7478657976804
-14.8587735449512
-14.7980535427296
-14.6159663916139
-14.3819443249876
-14.1595511369056
-13.987298215854
-13.8708817722515
-13.7880566068628
-13.7029404624545
-13.5834724871281
-13.4150044375422
-13.204884850002
-12.9768372555374
-12.7584416113868
-12.5681151802011
-12.4081084726932
-12.2669856696481
-12.1302412831716
-11.9934614714031
-11.8708721135866
-11.7940243436788
-11.7998897433473
-11.9127054780918
-12.1272401316052
-12.4012911550067
-12.662130420377
-12.8264930893855
-12.8284006485288
-12.6454713219894
-12.313767592244
-11.9241721189998
-11.5991843299914
-11.4561491985807
-11.5686564209548
-11.9396088321774
-12.4960685988366
-13.108532141981
-13.6287088852348
-13.9335360846836
-13.9612815430528
-13.7285287570098
-13.3232876791521
-12.8771631126863
-12.526004270944
-12.3717655755796
-12.4574020327058
-12.7617986320247
-13.2146364664698
-13.7242534223804
-14.2074839289946
-14.6106789499711
-14.9154625456728
-15.1294504571826
-15.2683440056584
-15.3389084008314
-15.3310916266904
-15.2226674252722
-14.9936727463265
-14.6433750244315
-14.201425528123
-13.7274296813935
-13.298077450155
-12.9861241505337
-12.8388520893874
-12.8639226816485
-13.0277255646601
-13.266632797306
-13.5068422693761
-13.6855017535384
-13.7655423594397
-13.7391495233509
-13.6192277227329
-13.4230429502987
-13.1555789444672
-12.800516750933
-12.3238071071101
-11.689647776406
-10.8833349206098
-9.93199263466037
-8.913926033615
-7.95052440972553
-7.18038121914942
-6.7218000148806
-6.63486160273928
-6.89574903210145
-7.39313770914162
-7.94981226422852
-8.36445642612622
-8.46174253256356
-8.13594219108156
-7.37530805865138
-6.26063480813161
-4.93950099228587
-3.58500174246059
-2.35199403779046
-1.34378455565573
-0.597983381824181
-0.0934435564753724
0.226773251430273
0.426145161044777
0.549737939291952
0.611153656919365
0.593624057250109
0.461997366875003
0.178854682133978
-0.282307694787622
-0.931100668976764
-1.76134922435168
-2.75546049746519
-3.88715398096256
-5.11969411310259
-6.40065852988464
-7.65775066809571
-8.80121573458838
-9.7363270626353
-10.3850194478517
-10.7109661484616
-10.7393125121111
-10.5623409044663
-10.3258788040017
-10.1973338494828
-10.3228330674763
-10.7856343578575
-11.5789003690473
-12.6025081753087
-13.6866805610534
-14.6368767000043
-15.2872290081261
-15.5464179753043
-15.4217406678607
-15.0139406856366
-14.4849045108107
-14.0091754468066
-13.7251301064394
-13.7009071817372
-13.9243539368966
-14.3178082663565
-14.7705637990899
-15.1769075030483
-15.4669651940874
-15.6211288897489
-15.6651858510429
-15.6501650217518
-15.6259603832508
-15.6192893732836
-15.6241207046981
-15.6074182001219
-15.5269989749276
-15.3538462652794
-15.0899932290885
-14.7753571598781
-14.4814791349836
-14.2950183447559
-14.2971391132025
-14.5455052419993
-15.0635138820262
-15.8377412918155
-16.8209450244333
-17.9358581434774
-19.0752281073919
-20.0959441167472
-20.8086559461046
-20.9676250785089
-20.2674847789367
-18.3535194222129
-14.8500340885666
-9.40788518138645
-1.76800446910652
8.16659924452392
20.2618690905269
34.1013037699153
48.967664586898
63.8707575611285
77.6271092296697
88.9862232586581
96.7859368234118
100.110600288632
98.4240275807651
91.6550548448716
80.2241766432148
65.0103582647848
47.2641913584227
28.4767796877261
10.2157205928256
-6.0566850375269
-19.1615682363948
-28.3503415614061
-33.3912002608754
-34.5734471224085
-32.6240273046631
-28.5516187614778
-23.4521695343465
-18.3191629267454
-13.8988464314099
-10.6165190674247
-8.57976211925523
-7.64476556000039
-7.51834931672488
-7.86406126286143
-8.38585158293137
-8.87452204863253
-9.2159975786164
-9.37183153012057
-9.34796875562939
-9.16683905177683
-8.85198317912585
-8.42666702732254
-7.92136876760704
-7.38172338861841
-6.86922712833186
-6.45110019986442
-6.18137680557319
-6.08017049235177
-6.12009468219237
-6.22704802148318
-6.29753754155476
-6.22829640993341
-5.94872922805078
-5.44490869484275
-4.76633423095398
-4.01255786557615
-3.30382580831196
-2.74543908219805
-2.39762495442962
-2.2606441894412
-2.27939255829228
-2.36486317329184
-2.42409782592179
-2.38785486817986
-2.22694905298373
-1.95311356929117
-1.60613988430557
-1.23368115651003
-0.871943954805471
-0.53418235247677
-0.21019934666107
0.124508362381876
0.494978652666845
0.914797907422942
1.3810540995415
1.87809451912709
2.38798921606018
2.90255515688015
3.4309558163155
3.99869915933975
4.63761133248361
5.37044592493928
6.19641210238994
7.08394090792053
7.97444212086106
8.79667958941233
9.48735200249599
10.0110565086212
10.3728850488252
10.6193567731163
10.827285348713
11.0841147658964
11.4658948358353
12.0196097979666
12.7549434137562
13.6473262454054
14.650315111938
15.712299667814
16.7913438252922
17.8631264681326
18.9200184784967
19.9631073177569
20.991904315025
21.9972876914296
22.9615632835967
23.8660836992186
24.7031792277074
25.4868329800056
26.2565435312686
27.0711349781615
27.9930136860483
29.0671860091924
30.3018732705854
31.6578051816241
33.0509608591612
34.3692575615646
35.4988739551922
36.3523278663828
36.8895412902615
37.1253350196896
37.1213125307976
36.9652755212013
36.7453215353578
36.527198581758
36.3417996853161
36.1854740374047
36.0307791258418
35.8415094502055
35.5848815893427
35.2359417138237
34.7735421949325
34.1716459230898
33.392211678762
32.3853288389799
31.0989135283265
29.4957226541945
27.5716963426421
25.368251830897
22.9726715070562
20.5046241561265
18.0917584116775
15.8414243861115
13.8173319904358
12.0286168293304
10.4347968619048
8.96485914124093
7.54402461011016
6.11922407264348
4.67489762699163
3.23427335166441
1.8465715701636
0.565673042157257
-0.571256539096974
-1.5569968597259
-2.41457250703315
-3.1850033391031
-3.9078326653433
-4.60257877814267
-5.258843554268
-5.83932952248871
-6.29485647162297
-6.58567818541215
-6.7008247234033
-6.66778399514749
-6.54836459764811
-6.42176379765849
-6.36076130697234
-6.40966200155054
-6.57201587279807
-6.81245042546304
-7.07159634644134
-7.28816366054874
-7.41966240986454
-7.45408512381881
-7.40877091553644
-7.31806595861926
-7.21601808858034
-7.12221802735951
-7.0372162212212
-6.94942101372132
-6.84996979854852
-6.74811881281628
-6.67897379414149
-6.69826917600264
-6.86426360477063
-7.21249818517794
-7.73286430357939
-8.35860714676701
-8.97333941338056
-9.43604717278483
-9.61759266222407
-9.43772515477348
-8.89082491408856
-8.05191128813285
-7.06067945520684
-6.08823864040951
-5.29639549155784
-4.80110049377486
-4.64968094446711
-4.81668319312288
-5.21738533093175
-5.73325431706586
-6.24112385731133
-6.63808290814022
-6.8565962381192
-6.86821921290165
-6.6780824376974
-6.31483216020306
-5.8210945031043
-5.24772608378229
-4.651980429445
-4.09681832218043
-3.64747283307881
-3.36272751609105
-3.28156460174245
-3.40928962622786
-3.70916986208568
-4.10493539162439
-4.4962223718592
-4.78430812458228
-4.90103576107811
-4.83141634004636
-4.62125717435865
-4.3654783556792
-4.17936543573275
-4.16151073929484
-4.36094014805274
-4.7601085095022
-5.28009350846936
-5.8063742987506
-6.22611573838409
-6.46376142261184
-6.50248775055032
-6.38434887537413
-6.18977286616883
-6.00459146489199
-5.88725721841775
-5.84865829583481
-5.85202777966385
-5.83267960955692
-5.72965255967604
-5.51675434717742
-5.22070877118636
-4.91899135372888
-4.71761727870007
-4.7167414562228
-4.9765938750209
-5.49618698751912
-6.21235806334232
-7.01896062616592
-7.79854444629361
-8.45463840228643
-8.93326728119664
-9.22712017845862
-9.36280288262968
-9.37810299506532
-9.29970000883956
-9.13094303178788
-8.85458701340085
-8.44874992636392
-7.90863959678904
-7.26411693328529
-6.58474819878887
-5.96881925637246
-5.51887613243062
-5.3114899649173
-5.37140692174689
-5.65926730943364
-6.07793395187685
-6.4964130117453
-6.78439508149356
-6.84675311693676
-6.64732628278755
-6.21502732434071
-5.63136467064338
-5.00462978692116
-4.43999015992351
-4.01513023318018
-3.76794427046033
-3.69758953623536
-3.77517336363545
-3.95744783681597
-4.19709495862738
-4.44618778801554
-4.65375804952936
-4.76204680495954
-4.70717929036475
-4.42800109647195
-3.88245117178776
-3.06616424544352
-2.02534430637077
-0.856816103173595
0.307631370680716
1.32966144754275
2.09752881421952
2.55354613182807
2.70675076979094
2.62609938136313
2.41562943062264
2.17877251963998
1.9825858904995
1.83301274934752
1.66923640010062
1.37954857832917
0.834540708203127
-0.0720661800409406
-1.38717845895621
-3.07761489013164
-5.03115440769508
-7.07897694416014
-9.03274929014679
-10.7254726728172
-12.0445780720144
-12.9487740687977
-13.4657827401638
-13.6743499565798
-13.6784855115858
-13.5831213137042
-13.478030677216
-13.4321987968793
-13.496036729258
-13.7059357860131
-14.085718835913
-14.642291096605
-15.3568874303783
-16.176905246196
-17.0146960500511
-17.757979244222
-18.2921753123881
-18.5296692388048
-18.4371166765065
-18.0511691210708
-17.4758833866541
-16.8606760039053
-16.3641035299393
-16.1137611175508
-16.1743318567893
-16.5334997606006
-17.109711165921
-17.7785676718416
-18.4085455410794
-18.8940649934194
-19.1757522365399
-19.2433356172935
-19.1236590327119
-18.8617841211948
-18.5048323349372
-18.0956230950526
-17.6776846841097
-17.3073008612961
-17.0643739467041
-17.0536386379195
-17.3913043041624
-18.1780982757566
-19.4654313547755
-21.2245809919251
-23.3281638339444
-25.5491870711224
-27.577320369705
-29.046823622074
-29.5676290345555
-28.7515919298376
-26.2301214797829
-21.6661279883215
-14.7697575245804
-5.33012694750015
6.72858646510803
21.268971787851
37.8565019609662
55.6981053760716
73.6349092783644
90.212808240037
103.835753379824
112.982626172644
116.447483073142
113.552590928669
104.287757280056
89.3460197858271
70.0485010408474
48.1730254735616
25.7170853110584
4.63438146837967
-13.4138551183453
-27.2551194094875
-36.3204996307777
-40.6628443838702
-40.8802619641925
-37.9646084813031
-33.1078112743966
-27.5038943980679
-22.1806188148554
-17.8840050735727
-15.0255854210961
-13.6897624766821
-13.6895027128557
-14.6535088702984
-16.1265199639649
-17.6654907480315
-18.9172288797138
-19.6671569830234
-19.8540865312238
-19.5520427415995
-18.926527971361
-18.1777380590327
-17.4855246903419
-16.9693472891377
-16.6713692085992
-16.5637459500421
-16.5741959065247
-16.6192143604866
-16.6331622460827
-16.5841962565686
-16.4736085563598
-16.3215607807439
-16.1470042273418
-15.9510072768852
-15.7104752528434
-15.3845842341126
-14.9311715055594
-14.3266624411674
-13.5819142344105
-12.7477701371888
-11.9075589231179
-11.1581447786147
-10.5850704427083
-10.2395599442423
-10.124839488128
-10.1963401077525
-10.3757134748819
-10.5738367822388
-10.7149130933536
-10.7535993535883
-10.6798894728565
-10.5111766257406
-10.2757386809412
-9.99500518985593
-9.67216442206151
-9.29183036398546
-8.83069302731601
-8.27426862794429
-7.6320708772433
-6.94392830242975
-6.27362897650884
-5.69122403283594
-5.25013832135441
-4.96775133208878
-4.81716977620822
-4.73374422547033
-4.63414500526744
-4.44093659192825
-4.1036428861682
-3.60899456059413
-2.97750001278532
-2.24873778252674
-1.46177607274046
-0.638507001584506
0.223889630035755
1.14895203401299
2.16758259457174
3.30109973221079
4.54775601301212
5.87838577927405
7.24334451627624
8.5885349311947
9.87457180466549
11.0914286121102
12.2621421139165
13.4332031439179
14.6546878177708
15.9576443107277
17.3376751168974
18.7513960945766
20.1275484478436
21.389005965021
22.4778013144491
23.3740084646708
24.1013182009939
24.7168042542638
25.2881312679563
25.8662539174268
26.46367217413
27.0466520740401
27.5449753611463
27.8764951939871
27.9783837607846
27.8344127165075
27.4887468199348
27.0410918769703
26.6241185535721
26.3698618188524
26.3753767087236
26.6781400772725
27.2484201432358
28.0001250685927
28.8154475024857
29.5742427889169
30.1782386407638
30.5631645854584
30.6973272943018
30.5706303657498
30.1812781801952
29.5272866655952
28.6068025420181
27.4266258546092
26.0142064665447
24.4263766006754
22.7489498269124
21.084771887425
19.5325932635203
18.163364254926
17.0024114359865
16.0245178005885
15.1646217309161
14.3412415873185
13.4849166823993
12.5618096306248
11.5841087454393
10.603614530176
9.69117439145073
8.90998160851091
8.29295949249947
7.83254944962963
7.48602673411321
7.19322602250051
6.89888371190148
6.57050198570904
6.20504570836766
5.82277085995776
5.45196743534036
5.11213164157409
4.80353666466452
4.50817548195486
4.20185186511563
3.87197575268128
3.53262395908796
3.2290191693805
3.02762193951715
2.99395109419822
3.16569579432292
3.53141064603895
4.02382171034872
4.53183478310076
4.92861059962669
5.10716902045815
5.01206814205968
4.65669358158339
4.12017315516744
3.5244824287366
2.9988863075416
2.64324684422386
2.50219810752496
2.55835582782138
2.74592614752603
2.97887110606864
3.18286050872217
3.31933882958604
3.39343822149435
3.44392720491088
3.52045708313051
3.65821101705546
3.86063884569114
4.09709722119422
4.31571212674749
4.46547173680077
4.51796039616224
4.47951976256847
4.38868124898697
4.29981549807491
4.25967253228019
4.28652909011098
4.36074889261122
4.43103400776592
4.43433020483525
4.321794905502
4.08063616698924
3.74297497548005
3.37766850269911
3.06749500508192
2.87981450535317
2.8415583701468
2.92803809272852
3.0700662942216
3.17712458889083
3.16831496032521
2.9998243054964
2.67879053437613
2.25848159376505
1.81681313618526
1.42671403178257
1.13004370707048
0.92524163617893
0.773190784662536
0.618289803750304
0.415629571722089
0.152945254932265
-0.141618662350036
-0.409123204215262
-0.583237179703359
-0.618593826206034
