-0.0503476453078357
-0.043185161388114
-0.036471844815243
-0.0306468674804029
-0.0261314062815044
-0.0233225844539173
-0.0225745609980494
-0.0241505981505272
-0.0281363517089264
-0.0343232729116874
-0.0420959740527275
-0.0503778781866958
-0.0576939738713036
-0.062390469222542
-0.0630087166602557
-0.0587542827797492
-0.049947803306195
-0.0383105101818785
-0.0269389024911198
-0.0198679800527865
-0.0212096519867667
-0.0339701839620074
-0.0587742012664542
-0.0928204861876275
-0.129431681593185
-0.158507030124135
-0.168031184520553
-0.146544684717214
-0.0861852030935093
0.014365408209394
0.147854541204518
0.298139394209308
0.442066599917164
0.553509280077458
0.608860248056916
0.592696649541219
0.502060007822083
0.348008066448024
0.153797463249448
-0.0499537499269654
-0.231850365250248
-0.366269047205671
-0.438177753159197
-0.445146921967233
-0.396353191543056
-0.309196924252304
-0.204672055987501
-0.102745235051856
-0.018769807801908
0.0384811428408491
0.0670662314469744
0.0707163024375718
0.0568083847470276
0.03408068973619
0.0106128572094645
-0.00758045151428331
-0.0172031910932548
-0.0176280499195716
-0.0103249483422846
0.00198863343333185
0.0162365711276017
0.0297248152547798
0.0406209039159475
0.0481359533600807
0.0524382023241964
0.0543740101301896
0.0550970170888638
0.0557080424094734
0.0569890619801702
0.0592794633138326
0.0625001995948202
0.0662921664072262
0.0702095476926721
0.0739034749961208
0.0772454681472492
0.08036614704567
0.0836119819095014
0.0874430298145211
0.0923046791299279
0.0985078754498416
0.106147723729579
0.115080735076389
0.124966162222076
0.135358612887149
0.145823079992439
0.15603690010821
0.165849608290243
0.175288207347572
0.184514291496739
0.19375322135791
0.203220468672933
0.213066883525373
0.223355759256438
0.234073070751398
0.245160502997149
0.256551482714352
0.26818681441001
0.279991740582437
0.291810403102521
0.303312520052998
0.313903326474879
0.322674534869191
0.328427888539052
0.329785298990585
0.325376017938963
0.314068907673529
0.295202951276526
0.268765462031252
0.235475677157901
0.196749514492958
0.154545316104967
0.111115431090057
0.0687091425769354
0.0292836731755487
-0.00572174906205058
-0.0355088909878553
-0.0599252402745476
-0.0793617813646179
-0.0945763849308375
-0.106486483734357
-0.115974763361846
-0.123742372824948
-0.130229019883536
-0.135602722258426
-0.139808398046115
-0.14265639629373
-0.143929145485046
-0.143484492453986
-0.141336681133498
-0.137700056202762
-0.132986689302938
-0.127757190583401
-0.122633331763792
-0.118190108175236
-0.114850916824606
-0.112810190624973
-0.112002226770351
-0.112124241624298
-0.112708553883524
-0.113226699237049
-0.113200670291663
-0.11229565436899
-0.110374664732726
-0.107506143269538
-0.103927682122712
-0.0999793418348839
-0.0960262065174455
-0.0923902922365092
-0.0893065829073154
-0.0869086122531454
-0.0852390875257646
-0.0842742108252022
-0.0839487514652385
-0.0841723909256925
-0.0848342647575726
-0.085799007632566
-0.0869015617505364
-0.0879485435627592
-0.0887313713805599
-0.0890515490191617
-0.0887528063443281
-0.0877502253725905
-0.0860453869545457
-0.0837203565467374
-0.0809111947746282
-0.0777705444501173
-0.074434448014293
-0.0710074113286289
-0.0675713487510195
-0.0642119258993476
-0.0610460510871306
-0.0582321908427845
-0.0559523617616535
-0.0543679856962127
-0.0535650006250379
-0.0535102465096279
-0.0540379539561952
-0.0548739820341596
-0.0556919229357991
-0.0561850892854447
-0.056134548696066
-0.0554554305799404
-0.0542099946491749
-0.0525847153900249
-0.0508381700025163
-0.0492346053994147
-0.0479822488005414
-0.0471939421599227
-0.0468803960587311
-0.0469753282911398
-0.0473809197726395
-0.0480157680992689
-0.0488484642766709
-0.0499073344587383
-0.0512670306416972
-0.0530208585385801
-0.0552508564577733
-0.0580053754433708
-0.0612883893274967
-0.0650589688536321
-0.0692355746658568
-0.0736991536188301
-0.0782916581564061
-0.0828118110342924
-0.0870154440730143
-0.0906299444700434
-0.0933883076140978
-0.0950784613472561
-0.095592624416689
-0.0949563197891006
-0.0933220060143718
-0.0909271758312878
-0.0880342010452025
-0.0848796490487855
-0.0816577452372643
-0.0785465779326326
-0.0757637883110096
-0.0736209084428346
-0.0725401386888424
-0.0730068596046066
-0.0754525126260689
-0.0800886904323599
-0.0867363720178394
-0.0947077650530381
-0.102798165499635
-0.109429571640659
-0.112956248411985
-0.112097860640302
-0.106415974503225
-0.0967077019303253
-0.0851716777859087
-0.0752198176695786
-0.0708694564822889
-0.075749689839747
-0.0918763538466548
-0.118465087453519
-0.151127632015533
-0.181798578792626
-0.199642578889467
-0.192990750728352
-0.152075930517157
-0.0720399053721145
0.0445414955892704
0.186433995301106
0.334469852556889
0.464451674090022
0.551865018283153
0.577409331897637
0.531932067100881
0.419321953644909
0.256372663080797
0.0694720273177492
-0.111071120409078
-0.257533517264952
-0.350380035100592
-0.381581532334238
-0.355020268611187
-0.284208506172502
-0.188216168799486
-0.0870215183150057
0.00255926263355367
0.0695500121516593
0.109763198179331
0.125143780632119
0.121970001614968
0.108533660586245
0.0929090989310192
0.0812734935237674
0.0770224095466764
0.0806979226878747
0.0905644140884722
0.103560682863934
0.116333558441343
0.126104653686891
0.13121284713327
0.131281307975786
0.12705325632005
0.120006610525415
0.111885295647801
0.104275088391608
0.0983134828325966
0.0945705280254796
0.0930866880664156
0.0935175940466976
0.0953211182468095
0.0979288744813343
0.100865007328721
0.10380037903252
0.106551845044446
0.109049366180163
0.111296541369432
0.113343844748654
0.1152819866215
0.117250355494539
0.119446989300053
0.122124687669703
0.125563011097039
0.130015904139215
0.135645761916715
0.142463005938821
0.15029286178872
0.158786720329087
0.167484299142836
0.175916815528358
0.183725197941484
0.190757532129595
0.19711188277043
0.203105235173145
0.209171821659492
0.215716360851401
0.222961961499673
0.230834266624541
0.238912927501621
0.246462479315808
0.252533044919554
0.256103449535886
0.256230618038363
0.252171966987612
0.243460091848556
0.229925820875238
0.211679954998337
0.189071224435129
0.16263757216222
0.133062299700924
0.101139344782288
0.0677459114913151
0.0338175250331605
0.00032047416731382
-0.0317817531155647
-0.0615698017858553
-0.0882184972421365
-0.111055604021794
-0.129626175866972
-0.143753141834345
-0.153577625980113
-0.159559600414259
-0.162425533377567
-0.163064611142908
-0.162392698166428
-0.161214814711465
-0.160117168196078
-0.159409559969823
-0.159123901965951
-0.15906095909743
-0.158869218684926
-0.158137616215062
-0.156485975266069
-0.153640948382816
-0.149489072358681
-0.14410153463296
-0.137727680076485
-0.130757071547131
-0.123653947585532
-0.116873247135555
-0.110772680364914
-0.105538505407441
-0.101142178761498
-0.097340633908901
-0.0937250829158562
-0.0898125276069642
-0.0851621161026016
-0.0794886947654352
-0.0727432505594135
-0.0651373589457094
-0.0571046106331979
-0.0492105114582479
-0.0420366128786784
-0.0360697598783533
-0.0316223268657118
-0.0287970528229313
-0.0274958084192104
-0.0274604486879204
-0.0283289281107471
-0.0296915095110313
-0.0311381950132446
-0.0322958433576415
-0.0328581163050332
-0.032611536335711
-0.0314574393444897
-0.0294253284438937
-0.0266710915022722
-0.0234554493007029
-0.0201035450594225
-0.0169533500858139
-0.0143049225817649
-0.0123817899931945
-0.0113101007801651
-0.0111141243360705
-0.0117223837133571
-0.0129792229858243
-0.0146605721252552
-0.0164964914120879
-0.0182034664607687
-0.0195256149860125
-0.0202782402861982
-0.020383246800361
-0.019886380271249
-0.0189509057649698
-0.017828807676608
-0.0168160454286997
-0.0162010600198238
-0.0162154723995915
-0.0169939385502453
-0.018548021112855
-0.02075760589798
-0.0233825044320549
-0.0260953108296854
-0.0285334045343064
-0.030363336303445
-0.0313460978306731
-0.0313891272204266
-0.0305721186678355
-0.0291388894300054
-0.0274549501236665
-0.0259377193854127
-0.0249721520958344
-0.0248285146263492
-0.025600616149364
-0.0271807939640637
-0.0292812214036805
-0.0314998694942156
-0.0334161696812052
-0.0346907776343287
-0.0351411049076462
-0.0347721649415919
-0.0337582083771496
-0.0323873592510724
-0.0309912473528014
-0.0298808383015634
-0.0293005218564902
-0.0294011932184477
-0.0302259140772695
-0.0317019773506059
-0.0336393257183872
-0.035742090464466
-0.0376418715822514
-0.0389558133231582
-0.0393618737938559
-0.038673565079344
-0.0368923523473835
-0.0342202300960054
-0.0310260943573286
-0.0277729784907312
-0.0249241237068902
-0.0228508831545073
-0.0217637896092631
-0.0216811567938949
-0.0224398876087771
-0.0237433456695135
-0.0252333558247155
-0.0265691566420948
-0.0274960206706133
-0.027889614324792
-0.0277675059680694
-0.0272654652682698
-0.0265832401347725
-0.0259122506063233
-0.0253644616506258
-0.024924346434587
-0.024441387036343
-0.0236687412146347
-0.0223380488784658
-0.0202469751631085
-0.0173307970128018
-0.0136946196482127
-0.00959654536317462
-0.00538880808804453
-0.00143739277828443
0.00195328023065929
0.00458674554088756
0.0063783538879137
0.00731769777186824
0.00740541851911228
0.00659008164645314
0.00473225723530304
0.00161559278712595
-0.00298859289717107
-0.00921190668401062
-0.0169580179555073
-0.0257864069711801
-0.0348552838787369
-0.0429677126932769
-0.0487499885291935
-0.0509598741750968
-0.0488791056608597
-0.0427008642243231
-0.0337930184737596
-0.0247147131157705
-0.0188950189413382
-0.0199483145407826
-0.0306940828000574
-0.05205271550941
-0.0820800123275655
-0.115452545586376
-0.143695010131401
-0.156328403069834
-0.142913580051866
-0.0956985347918364
-0.0123138060688587
0.102213931353808
0.234858835969728
0.365902632357884
0.472202732905037
0.531899182760239
0.529503625213576
0.460019933733889
0.330853018762453
0.16080295702826
-0.0237262634163797
-0.194336282395598
-0.326562902301342
-0.404588269155992
-0.42364567197957
-0.38975362889321
-0.317156631232901
-0.224377312546891
-0.129985601762366
-0.0490722606778423
0.0089276655871965
0.0408474880801803
0.0490177345875693
0.0395601672624677
0.0203039363065536
-0.00115953953857629
-0.0189113116891887
-0.0294506685487218
-0.031761223180299
-0.02684941300822
-0.0169838973141147
-0.00487230798203059
0.00703458594961596
0.016998187618064
0.0241756073331347
0.0285666305302384
0.0307994121284666
0.0318424988284732
0.03272085297093
0.0342903234099957
0.0370976611708173
0.041328966613888
0.0468327071481439
0.0531955944435406
0.0598495660810489
0.0661924245624862
0.0717083851943225
0.0760741577827892
0.0792320902385442
0.0814100909696526
0.0830749998862999
0.0848233881758715
0.0872358206681513
0.0907372757520889
0.0955085306559234
0.101477619479824
0.108391682194559
0.115938882171003
0.123870652960334
0.132075221208513
0.140574460523185
0.149449096279579
0.158728378283928
0.168296447797153
0.177861633177067
0.187008810722137
0.195319398818942
0.20251352245738
0.208557254986677
0.213689557871202
0.218353410525744
0.223050754966451
0.228166670234057
0.233815157246254
0.239746808803537
0.245335517020483
0.24963844910214
0.251509291584289
0.24974161949568
0.243223753032144
0.231092337642388
0.212873854928148
0.188599863054381
0.158875819534314
0.124880372764579
0.0882772390721092
0.0510370323878266
0.0151884626883138
-0.0174600313236918
-0.0455737517565332
-0.0684658571201313
-0.0861520405661725
-0.0992714420469429
-0.108890521606694
-0.116234901971464
-0.122411576613826
-0.128185043052704
-0.133855621143333
-0.13926141761756
-0.14389500080016
-0.147099555728309
-0.148292466230833
-0.147159577698971
-0.143771439963451
-0.138592404443209
-0.132380889794065
-0.126007994927443
-0.120244030186541
-0.115571766435331
-0.112078223587561
-0.109455292677067
-0.107109305255056
-0.104349267393594
-0.100601372989376
-0.0955897989467561
-0.0894330178024312
-0.0826287985493109
-0.0759330445676073
-0.0701676925397269
-0.0660111946158171
-0.0638263470879671
-0.0635662280345474
-0.0647768371121496
-0.0666923361539521
-0.0684002230627033
-0.0690408564965579
-0.0679989443282634
-0.065044942330072
-0.0603931474472584
-0.0546606377975308
-0.048734142174189
-0.0435744218263972
-0.0400029772970337
-0.0385193691262204
-0.0391889839025393
-0.0416242133114369
-0.0450617048581132
-0.0485189647125102
-0.0509981969377091
-0.0516957977573303
-0.0501737121023141
-0.0464548721368039
-0.0410194807815207
-0.0347005721033071
-0.0285018236478683
-0.0233810975463542
-0.0200524177687997
-0.0188530911333218
-0.0197032202124204
-0.0221588863016824
-0.0255366012788488
-0.0290719689516554
-0.0320723711696876
-0.0340305966198295
-0.0346803150283676
-0.0339911935432996
-0.03211712967791
-0.0293215422730717
-0.025905945379361
-0.022161525836847
-0.0183507802957434
-0.0147126935148219
-0.0114760869748787
-0.00886485116593243
-0.00708510636918561
-0.00629420046065044
-0.00656053091301425
-0.00782852132471982
-0.00990349591123498
-0.0124667199946993
-0.0151225583106115
-0.0174697422978874
-0.0191801806110404
-0.0200645146812383
-0.0201054878033846
-0.0194482023035967
-0.0183485662156459
-0.0170940740969578
-0.0159203426627928
-0.0149493126586456
-0.0141695015914648
-0.0134661344412669
-0.0126925224024924
-0.0117586384948743
-0.0107040732408926
-0.00972479242738204
-0.00913734041251676
-0.0092866134802708
-0.0104260436035207
-0.0126124973035058
-0.0156559912753292
-0.0191466210331587
-0.0225545409495026
-0.0253731507469677
-0.0272596966659804
-0.0281268381929748
-0.0281542967849453
-0.027716852870303
-0.0272539576231896
-0.0271257668376219
-0.0275031195151718
-0.0283251497655909
-0.0293347993973011
-0.0301786129042883
-0.0305396993414336
-0.0302645942736541
-0.0294461197940323
-0.0284344151656706
-0.0277658265198965
-0.0280215131398276
-0.0296492091516706
-0.0327959642725755
-0.0372017525175039
-0.0421921796426358
-0.0467853895858002
-0.0498982867674056
-0.050606869155816
-0.0483933710083471
-0.0433081961122067
-0.0359929493613207
-0.0275498802850987
-0.0192908870411975
-0.0124383385265935
-0.0078649785228581
-0.00594550901911672
-0.00655475084072332
-0.00920113350401633
-0.0132447937350943
-0.018127017096844
-0.0235363747464553
-0.0294563234121344
-0.0360753295399778
-0.0435858298625295
-0.0519403222736824
-0.060657354778179
-0.0687662445027856
-0.0749449517294521
-0.0778490886097514
-0.0765670251418125
-0.0710831340000469
-0.0626019805349712
-0.0535899846764265
-0.0474329089941705
-0.0476876661132102
-0.0570177368062007
-0.0760236663428313
-0.102281390343773
-0.129941300765055
-0.15018470795406
-0.152668060782947
-0.127829348336669
-0.0696414193948845
0.0218452867330297
0.138935219119377
0.266362164683479
0.383344703784943
0.467448368121955
0.499504649849182
0.46838360162846
0.374276111345896
0.229428948819778
0.0559540381420738
-0.118804086278598
-0.268120747305922
-0.371401608618117
-0.417957497770324
-0.408232969003745
-0.35244128404058
-0.267240590302922
-0.171497407968477
-0.0822523271735193
-0.0117702798766178
0.0338585859975096
0.0545566947625706
0.0548924783265948
0.0420694662489892
0.0238528425159389
0.00689188688630515
-0.00430519987787107
-0.00769729277606999
-0.00345437432422734
0.00667121784805152
0.020117704476491
0.0342380334669658
0.0468480833130282
0.0565432266187359
0.0627877871208499
0.0658223294969306
0.0664531667475826
0.0657903569455922
0.0649902792348249
0.0650424506953984
0.0666226245634726
0.070019144516521
0.0751291673511883
0.0815158835237855
0.0885153752496105
0.0953792250668632
0.101434144117877
0.106232986290963
0.109665827926183
0.112000331500806
0.113831456192942
0.115941983706482
0.1191021983615
0.123860044116966
0.130382219778483
0.138396081642267
0.147253528284074
0.156100618228935
0.164104043581585
0.170669506058683
0.175592388160679
0.179104361244108
0.181811294402062
0.184547141870135
0.188187031876951
0.193466929142387
0.200848350154695
0.210449525582637
0.222045061483639
0.235119615389689
0.248950915679299
0.262695610607743
0.275457936039083
0.286333422310119
0.294433080286473
0.29890271731529
0.298954012770006
0.293918323188121
0.283323221480385
0.266979649286072
0.245058640412309
0.218133778852622
0.187169659056332
0.153446746105509
0.118427363983298
0.0835831889884562
0.0502172968583598
0.0193186213081829
-0.00851954169863749
-0.033101774787275
-0.0545596934581437
-0.0732328843434404
-0.089536025994257
-0.103844596191966
-0.116420577418859
-0.12738506175176
-0.13673202274378
-0.1443699301455
-0.15017584299647
-0.15404876620689
-0.155953325173192
-0.155949359695662
-0.154206627498799
-0.151005780258291
-0.146727103530717
-0.141827976637059
-0.136809869801914
-0.132176694594739
-0.128387979324946
-0.125811489458262
-0.124679990008706
-0.125056474845147
-0.126812444859861
-0.129625007406963
-0.132999615553618
-0.136324073557195
-0.138954085310906
-0.140321060007806
-0.140042096032681
-0.1380052397992
-0.134404742428162
-0.12971195345748
-0.124584337800919
-0.119732192451329
-0.115774418988692
-0.113117484272658
-0.111884669503467
-0.111908341276371
-0.112781247779042
-0.113949208965619
-0.114820796857421
-0.11487051773583
-0.113718549618948
-0.111178543650811
-0.107271997374051
-0.102211870202612
-0.096360180136354
-0.0901658969029622
-0.0840916248125887
-0.0785403458690645
-0.0737957014499854
-0.0699888500957884
-0.0670999289940482
-0.0649926056034094
-0.0634691967455414
-0.0623263919868288
-0.0613919919570199
-0.0605320573421809
-0.0596319009715179
-0.0585669387688152
-0.0571842619082405
-0.0553102310638231
-0.0527860275547489
-0.0495185624878694
-0.0455255989760185
-0.0409553379519584
-0.0360709148218805
-0.0312038612345468
-0.02669109540752
-0.0228134469822705
-0.0197504370002989
-0.0175593579019515
-0.0161799900860736
-0.0154610087756556
-0.0152002483327036
-0.0151885290670441
-0.0152465063829094
-0.0152467615432602
-0.0151186653900888
-0.0148393851716949
-0.0144181761966519
-0.0138812230522885
-0.0132611458066277
-0.0125909289091842
-0.011899085844246
-0.0112031709361415
-0.0105022383004825
-0.00977327267503627
-0.00897849528658742
-0.00808721445607268
-0.00710803729892522
-0.00611877416663565
-0.00527763128123433
-0.00480359598141562
-0.00492523035892585
-0.00581060980531809
-0.00750094898891423
-0.00987217375855351
-0.0126411201584808
-0.0154185642501902
-0.0177950913947081
-0.019433957702628
-0.0201422024812232
-0.0198987676558713
-0.0188338220353555
-0.0171711468594255
-0.015158287531601
-0.0130118507081563
-0.0108966822053647
-0.00894139993403173
-0.00727580046706474
-0.00606524517576216
-0.00551782558774839
-0.00585179965502756
-0.00722866722899541
-0.00967389149180858
-0.0130157284102377
-0.0168690761611921
-0.0206765655993263
-0.023798964824763
-0.0256298863086223
-0.025703096931588
-0.0237665747267417
-0.0198116727539108
-0.014060717130917
-0.00692568669485541
0.00104767094377005
0.00923946620892671
0.0170128378825382
0.0237651415462037
0.0289700241336193
0.0322073604346187
0.0331801904277951
0.0317224547519164
0.0278062179125253
0.0215585600908165
0.0132938197235946
0.00355653880244912
-0.00684273501589925
-0.0168279722652754
-0.0251278405437163
-0.0304410444901739
-0.0316999893211352
-0.0284009061737265
-0.0209285951193291
-0.0107718969756828
-0.00051647358510247
0.00647438286117492
0.00671905966954163
-0.00244608482017299
-0.0218206514547019
-0.0494418119070059
-0.0801358221993421
-0.105792054813329
-0.116512571031909
-0.102587873002251
-0.0569995438326412
0.0220856097860715
0.12951066760417
0.252675410938066
0.372872022980022
0.468427169574212
0.519139199216838
0.5110142382793
0.440046262083586
0.313897258567219
0.150842092601478
-0.0238831654978157
-0.183413182266298
-0.304854849931368
-0.373713545685404
-0.386114284160325
-0.34847191048989
-0.274967163591037
-0.18369385749522
-0.0925456012425063
-0.0158080845710067
0.03790272578585
0.0661415017178444
0.0717586816192278
0.0611149351665635
0.0419639965138016
0.021536008675431
0.0051910309465637
-0.00420063218980543
-0.00619446877862511
-0.00220854247372876
0.00529139324202588
0.0136202396547313
0.0205372166237274
0.0246495058187262
0.0255407507181816
0.0236696003896403
0.0201163813464781
0.0162627216252105
0.013476650775425
0.012853847314561
0.015042989985342
0.0201651401381221
0.0278251338537815
0.0372050420218798
0.0472225827626753
0.0567291166700234
0.0647138407255496
0.0704770285432671
0.0737396995013449
0.0746707721718422
0.0738317259881232
0.0720563862840557
0.0702941851300455
0.0694478377199386
0.0702332023722144
0.0730831475423757
0.0781096318541412
0.085128328067137
0.0937377951612905
0.10343238506792
0.113718886816311
0.124205811224054
0.134643247354644
0.144908110726956
0.154948289125784
0.164712644464038
0.17409720112221
0.182930075909757
0.191001442318335
0.198125621556513
0.204207336097186
0.209279620914557
0.213489637524615
0.217027847866349
0.220018022555875
0.22240160675303
0.223854411820372
0.22376588059804
0.221294744352845
0.215494849487974
0.205486307285732
0.190634375398838
0.170695270139582
0.145896072868527
0.116932978696644
0.0848925257911519
0.0511171310002421
0.0170445389326359
-0.0159499085537116
-0.0466860641069391
-0.0742733795190573
-0.098160863654871
-0.11814191913058
-0.134317993809561
-0.147029989643478
-0.156771234660707
-0.164098525840825
-0.16955641635516
-0.173624270507596
-0.176687424937542
-0.179026409151554
-0.180815009612547
-0.182120450173694
-0.182905316644862
-0.183036951072158
-0.182311993833979
-0.180500123389952
-0.177403324794278
-0.172918627709679
-0.167086998828882
-0.160111648396236
-0.152335932798835
-0.144182399795108
-0.136066699053942
-0.128309004743562
-0.121068114439176
-0.114318205221128
-0.107876313473345
-0.10147316949195
-0.0948460770382305
-0.0878255719924517
-0.0803910132478085
-0.0726827761052707
-0.0649743759225474
-0.0576193944142956
-0.0509912335711382
-0.0454290668755332
-0.0411951274515555
-0.0384417800987757
-0.0371850340075232
-0.0372844560603919
-0.0384351121295506
-0.0401811588701415
-0.0419596812879084
-0.0431762255174357
-0.043302139532622
-0.0419728765394755
-0.0390612454831508
-0.03470377158098
-0.0292713924530448
-0.0232928523434893
-0.0173532260360297
-0.0119951073376669
-0.00764463912803644
-0.00457228467645065
-0.00288532595539108
-0.00254103018498295
-0.00336842853938175
-0.00509113106483177
-0.00734988910969582
-0.00972840306234878
-0.0117875789796003
-0.0131117561571691
-0.0133655514129863
-0.012353028327239
-0.0100647002804907
-0.00669598319055813
-0.00262527850504084
0.00164974283830174
0.00560601218892874
0.00879633504783816
0.0109309703662618
0.0119177395826459
0.0118525049635226
0.0109679735568211
0.0095602681488311
0.00791550586963581
0.00625366471779363
0.00469833680826846
0.00327253435307502
0.00191479774997803
0.000507203360376708
-0.00109270607959759
-0.00302147648578717
-0.00538305512682085
-0.00822614539969659
-0.0115260335860723
-0.0151732464663852
-0.0189736161744108
-0.0226649857594949
-0.0259535403407365
-0.0285674653061667
-0.030318838103397
-0.031159213489452
-0.0312130949736049
-0.0307774993808322
-0.0302838038119403
-0.0302271742836232
-0.0310763294033604
-0.0331805005894553
-0.0366907877171305
-0.0415102924460501
-0.0472827187322247
-0.0534237974603517
-0.0591943370126986
-0.0638074742621655
-0.0665554776194795
-0.0669343036922886
-0.0647399215360058
-0.0601128658808627
-0.0535186138971295
-0.0456690930908525
-0.0374082423587313
-0.0295938704490035
-0.0230043225698106
-0.0182835408654179
-0.0159194831052618
-0.0162372690291041
-0.0193852368027956
-0.0252996544233199
-0.0336488613648021
-0.0437753293990387
-0.0546691201635174
-0.0650126532197043
-0.0733293590984208
-0.0782452083679576
-0.0788348831304667
-0.0749821748541055
-0.0676503032749183
-0.0589462074539334
-0.051883583213748
-0.0498053889840124
-0.055511634510155
-0.0702373956079529
-0.0927163405263341
-0.118619026783806
-0.140645586992593
-0.149459733703268
-0.135472810929559
-0.0912460413977233
-0.0140289855607114
0.0922304053170807
0.216100917613466
0.339627418455443
0.441162137233849
0.499664378423343
0.499542251292364
0.434782914089227
0.311147598451801
0.14565108086049
-0.0366992003855227
-0.208109815619176
-0.343777227321672
-0.426727245354061
-0.450564090333874
-0.419645842044401
-0.346934160528129
-0.250322380516673
-0.148496545915389
-0.0573194060332575
0.0125701675028442
0.0566556179636843
0.0760431502228291
0.0759539630762572
0.0637348600408321
0.0469041081872553
0.0316289436020848
0.0218518457160652
0.0190964958829825
0.02283202032496
0.0311805018278964
0.0417260422004025
0.0522172039381683
0.0610299640734292
0.0673496827469167
0.0711115567397374
0.0727895613564857
0.0731359854999898
0.0729528613295759
0.0729382532777406
0.0736122665374026
0.0753024312344858
0.0781598459646094
0.0821829323133894
0.0872381986579763
0.0930799947942611
0.0993783247608205
0.10576278851693
0.111882810353558
0.117473767581864
0.122410874142771
0.126731941709233
0.130617860333252
0.134333748339174
0.138148929984696
0.142263321160831
0.146766208613525
0.15164059663452
0.156807817797523
0.162191369942424
0.167772739583879
0.173617245171146
0.179861263601811
0.186667033290225
0.194161638640779
0.202380325738592
0.211231785311787
0.220496199014617
0.229857019118366
0.238956502680864
0.247456301232422
0.25508162731374
0.26163243224667
0.266956233641765
0.270890772938842
0.273195646173664
0.273496559536772
0.271262913225953
0.265831186063485
0.256476549373742
0.242525566839175
0.223494071094972
0.199226164822343
0.17000407623984
0.136597638209306
0.100230091782897
0.0624546472056617
0.0249598836091548
-0.0106562345878197
-0.0430926042873704
-0.0714844697995791
-0.0954482142290358
-0.115031514889493
-0.130595831722711
-0.142673800575671
-0.151842788145637
-0.158639935928109
-0.163522529807984
-0.166861046247038
-0.168947193192945
-0.170005219235342
-0.170205140462706
-0.169682637432273
-0.168567176586753
-0.167010097171342
-0.165196742542754
-0.163329139503413
-0.161578806592818
-0.160025632303566
-0.158608676224083
-0.157112857089382
-0.155203450648041
-0.152504121815598
-0.148699644698072
-0.143634935885478
-0.137379684550989
-0.13023480530429
-0.122673633536421
-0.115233077772039
-0.108388991607937
-0.102456700262439
-0.0975480356924971
-0.0935941046754841
-0.0904177776570796
-0.0878223968954785
-0.0856608043224291
-0.0838616756349778
-0.0824111845490058
-0.0813067503051257
-0.0805081083436661
-0.0799075790786442
-0.0793304075491246
-0.0785637811995488
-0.0774044097441746
-0.0757110198242901
-0.0734487954789411
-0.0707155083003339
-0.0677420063876175
-0.0648626423288051
-0.0624555848648299
-0.0608602378920579
-0.0602882703055837
-0.0607521023810977
-0.0620352360553612
-0.0637201081752307
-0.0652731605551996
-0.0661691510240469
-0.0660236287631525
-0.0646980225577714
-0.0623469377993656
-0.0593907972995207
-0.0564161134868854
-0.0540258655330642
-0.0526776038924295
-0.0525517222950878
-0.0534851853201134
-0.0549896457400687
-0.0563525674241369
-0.056800872238874
-0.0556925570252647
-0.0526948275945384
-0.0479081739846353
-0.0419040139761689
-0.0356583596103434
-0.0303846649222272
-0.0272935291726765
-0.0273300021855304
-0.0309524615587653
-0.0380124755757791
-0.0477706877714176
-0.059046281963297
-0.0704600646606575
-0.0807067839473581
-0.0887884055379344
-0.0941561128684352
-0.0967377422493306
-0.0968591982549873
-0.0950937526760388
-0.0920859096435455
-0.0883951004217494
-0.084391455967361
-0.0802167519145715
-0.0758048902822764
-0.0709438158597994
-0.065357685828959
-0.0587932402598669
-0.0511024823773994
-0.042318639167568
-0.0327203282305678
-0.0228713033426119
-0.0136156461902347
-0.00600730929174261
-0.00116250124743171
-4.32061179683241e-05
-0.00320545576904217
-0.0105689495025209
-0.0212762825069355
-0.0337035505796567
-0.0456578640780615
-0.0547560048490528
-0.0589312020547593
-0.056972541712945
-0.0489741388973946
-0.0365669219705568
-0.022828746184027
-0.0118179066913195
-0.00774644029781147
-0.0138953803433945
-0.0314627351692998
-0.058608154269752
-0.0899909963335244
-0.117064694931126
-0.129273599202398
-0.116103257203754
-0.0696920197118296
0.0125241939636348
0.125819840542656
0.257532216023525
0.388251429130652
0.494934430328587
0.5554876907278
0.5538347866885
0.484162288199107
0.353085616025139
0.178952632568653
-0.0117024787681018
-0.189690838293066
-0.329227758207679
-0.412945543247269
-0.434672957261845
-0.399505824942309
-0.321457110631455
-0.219546979058787
-0.113442612419801
-0.0196798466273652
0.0508175845668471
0.0936304983374114
0.110265762944326
0.106523097477862
0.0903675712407699
0.0698573545149532
0.0515451981669997
0.0395759774210835
0.0355007657679093
0.0386686800465333
0.0469682087383547
0.0576732287609968
0.0681902548267308
0.0765780287169039
0.0817928873767277
0.0836831216978447
0.0828007925572742
0.0801174798608416
0.0767259972867254
0.0735915391262635
0.0713907625555217
0.0704513460696745
0.0707815083833097
0.0721622892631502
0.0742676198101869
0.0767786581689111
0.0794673208597197
0.082235896459584
0.0851120716829883
0.0882098314566873
0.0916749926258218
0.0956371690865796
0.10018527454551
0.105371604656504
0.111235005597809
0.117824017084922
0.125201484097162
0.133422840362189
0.142495639866564
0.152340203640778
0.16277418963076
0.173535450306493
0.184340915224389
0.194961901163955
0.205286844548986
0.215346161148438
0.22528905403412
0.235320695108643
0.245621130479279
0.256269575084841
0.26719071834599
0.278128523582754
0.288643480163992
0.298125188073301
0.305814599721861
0.310837087129332
0.312253723963299
0.309138417011192
0.300681063303855
0.286305295104246
0.26577974162615
0.239298481966508
0.207510240877565
0.171485159334871
0.132620205695471
0.0924968626894624
0.0527147604506846
0.0147297797111214
-0.0202766112408727
-0.0514779773340235
-0.0784265932413232
-0.101025619787585
-0.119464411548545
-0.134135437929617
-0.145549760744992
-0.154262663300158
-0.160814354359341
-0.165685429058135
-0.169264851580426
-0.1718295512459
-0.173537430409774
-0.17443725475907
-0.174497575081542
-0.173651782047265
-0.17184922741651
-0.16909731305323
-0.165481106773361
-0.161156128308268
-0.1563215753061
-0.151188163024214
-0.145953051692345
-0.140786328713464
-0.135825213732788
-0.131168693105857
-0.126868179012495
-0.122916774355171
-0.119246056070015
-0.115740116564694
-0.112270160770952
-0.108742370386698
-0.105143272553237
-0.101565457043836
-0.0982025273512122
-0.0953119172259957
-0.0931532464781176
-0.0919160197437025
-0.0916538193792669
-0.0922432226336634
-0.0933836428522312
-0.0946472615703718
-0.0955754440250688
-0.0958019737159054
-0.0951696278770184
-0.0938013958161225
-0.0920953784624807
-0.0906331750744452
-0.0900199277967506
-0.0907001312563262
-0.0928060502774857
-0.0960889607148362
-0.0999592895632533
-0.103628842694891
-0.106317639462184
-0.107467967163391
-0.106903661495048
-0.104884783736378
-0.102035573054139
-0.0991611599868955
-0.0970048547752716
-0.0960193115771312
-0.0962223650217807
-0.097182304892427
-0.0981373825591333
-0.0982140856644189
-0.0966804705683824
-0.0931622016719109
-0.0877614787206737
-0.0810483606300266
-0.0739311276316462
-0.0674460182484304
-0.0625265720702556
-0.0598129729943711
-0.059543395186239
-0.0615404827482704
-0.0652780607322692
-0.069995558166405
-0.0748248037539871
-0.0789039858410732
-0.0814696092983587
-0.0819301353135526
-0.0799281896155278
-0.0753915809860377
-0.0685628483623733
-0.0599909213540549
-0.0504723419053978
-0.0409430368466152
-0.0323387595125947
-0.0254547555575122
-0.0208373335308605
-0.018731452717567
-0.0190926851102095
-0.0216533605231753
-0.0260156062440486
-0.031733588345394
-0.0383497486925715
-0.0453688867568702
-0.0521860535715117
-0.0580173129105369
-0.0618999417150466
-0.0628176819452376
-0.0599654909786293
-0.0531085740540922
-0.0429328954248148
-0.0312501543866329
-0.0209246022967561
-0.0154377243543077
-0.0180943790438144
-0.0309839318064838
-0.0539165271019431
-0.0836280870167993
-0.113560569548005
-0.134457628221747
-0.135864917787659
-0.108403050206242
-0.0464283921620034
0.0495240157732408
0.171232090028743
0.302859032968202
0.422963857286306
0.508327288499364
0.538904321398502
0.502738321329775
0.399480289674527
0.241386296977059
0.0513096778258376
-0.141921060931589
-0.309551166171872
-0.428770768608208
-0.486915138927941
-0.483071196044679
-0.426956731742134
-0.335663758202852
-0.229309153885857
-0.126736685046325
-0.0422081444312899
0.0163745250277136
0.0476213366219687
0.0554659844807515
0.0471607116357027
0.0310485918938548
0.0146298555889098
0.00326236080186345
-0.000377122233357182
0.00386262209687968
0.0142568272188934
0.0280898822022405
0.0425288728724522
0.0552996667966751
0.0650663761430878
0.0715033970207038
0.0751198777677527
0.0769373800409916
0.0781300023926662
0.0797181094172874
0.0823726675000254
0.0863486005774421
0.0915323397873314
0.0975670902089898
0.104010964435802
0.110485607353011
0.116781926894545
0.122901715801288
0.129028417193749
0.135437203960813
0.14237191591579
0.149928631099718
0.157986191914577
0.166210256778797
0.174133416823444
0.181288458954709
0.187354107084761
0.192267970209582
0.196270551838367
0.199864041391826
0.203695050794298
0.208394418955881
0.214421584189823
0.221959854341955
0.230892032933572
0.240859570937454
0.251382263898657
0.261997959224599
0.272377314663627
0.282377591401627
0.292018806559542
0.301390020522035
0.310515790850797
0.319225105119646
0.327062955095637
0.333270292944932
0.33683888696123
0.336630885828994
0.331541591314917
0.32067723200749
0.30351653435277
0.280026375155896
0.250708885772564
0.216569578316662
0.179010974127313
0.139670590186025
0.100232831902006
0.062248491014287
0.0269911947481905
-0.00463190520555055
-0.0321128499990075
-0.0553276718573421
-0.0744851414702295
-0.0900486956661338
-0.102638148208066
-0.11291943845518
-0.121495890132912
-0.128818897376238
-0.135135557455574
-0.140484367124193
-0.144739534623604
-0.147693108240215
-0.149155130295198
-0.149047278068663
-0.147465802837449
-0.144695577760555
-0.141168754975759
-0.137377089343087
-0.133761965078458
-0.130614908003966
-0.128019832725837
-0.125856042850845
-0.123861586328897
-0.121736493599844
-0.119252188948663
-0.116332189818439
-0.113080235025508
-0.109750317595624
-0.10667176381305
-0.104155544387444
-0.102411801777729
-0.101502239432251
-0.101337132286713
-0.101711215798779
-0.10236214634609
-0.103032859464109
-0.103523341050543
-0.103723543623698
-0.103623696295663
-0.103300660970751
-0.102881799060434
-0.102493371788433
-0.102207670574007
-0.102007163267107
-0.101780452395885
-0.101353741033702
-0.10054783094627
-0.0992410558243968
-0.0974169858501166
-0.0951819690500093
-0.0927482092856972
-0.0903888345755226
-0.0883789090586219
-0.086938854249889
-0.0861941101888514
-0.0861584009546011
-0.0867403388414253
-0.0877673037811987
-0.0890181645242522
-0.0902570012482856
-0.0912622441024745
-0.0918487933349893
-0.0918842153573443
-0.0913026332259018
-0.0901194529225253
-0.0884458442938901
-0.0864959142944674
-0.0845758718483922
-0.0830469416022436
-0.0822630130259386
-0.0824963491500019
-0.0838734891199634
-0.0863429184578702
-0.0896851584010248
-0.0935597936720754
-0.0975709234700823
-0.101328637585209
-0.104489658070516
-0.106770937394169
-0.10794099770418
-0.107802345329658
-0.106182730361803
-0.102951570495927
-0.0980695177879159
-0.0916652044557304
-0.0841173443809211
-0.0761078006114949
-0.0686077241083545
-0.0627690303785515
-0.0597180608074396
-0.0602822789136667
-0.0647141524093038
-0.0724966156481014
-0.0823111361559461
-0.0922180094329194
-0.100044259683204
-0.103912291897195
-0.102791611682595
-0.0969319839690092
-0.0880449271703135
-0.0791380351660884
-0.0739667616710295
-0.0761454934496136
-0.0880477821388861
-0.109712445258952
-0.138037028647255
-0.166555813254472
-0.186040866619412
-0.186018895716066
-0.157074243362265
-0.0935491164557742
0.00397633561723737
0.127156365301489
0.259963456826075
0.380744911761812
0.466120662215534
0.496013551972907
0.458621014431319
0.35394807265529
0.194761720460945
0.00448663508137254
-0.187546888880888
-0.352283519714581
-0.466911182138675
-0.519092425248489
-0.508519212033817
-0.445664577341223
-0.348355468812112
-0.237259840709448
-0.131481069092396
-0.0452267936232696
0.013906794408832
0.0449691743281698
0.0523368272034385
0.0436055152675653
0.0273119977551483
0.0110052331220778
-7.05339656868146e-06
-0.00313380812735964
0.00171076831808195
0.0127881961873358
0.0274226457156437
0.0428531921740943
0.0568791888564563
0.0682136874484447
0.0765428420299682
0.0823521960078137
0.0866157737767832
0.090450626213398
0.0948230026527104
0.100360684347898
0.107288597269123
0.115471159971551
0.124522765429817
0.133941306354301
0.143227505913738
0.151969092696593
0.159885508799426
0.166839614460166
0.172826305652071
0.1779470235489
0.182377619138075
0.186336406602765
0.19005840224387
0.193779285792276
0.19772875553719
0.202129448670258
0.207196196012271
0.21313130896203
0.220113521541146
0.228279697970116
0.237699601788664
0.248346483535065
0.260070783832714
0.272588892865327
0.285499462625196
0.298332822504118
0.310625333088911
0.321996116793199
0.332197206792164
0.341115179491164
0.348720480684348
0.354981022347942
0.359769600842144
0.362795562784382
0.363581574561537
0.361491912599445
0.355805334239818
0.345817064750308
0.330951360078643
0.310866739297452
0.285538210923365
0.255303764342441
0.220866349019669
0.183247905702586
0.143698835449502
0.103574577361013
0.0641997429321906
0.0267460910509025
-0.0078514732827157
-0.0389288753597378
-0.0660824797887257
-0.089133509413874
-0.108088235530154
-0.123105493527098
-0.134470629151799
-0.142568557427167
-0.147851350468241
-0.150803382953398
-0.151912212011699
-0.151651630965151
-0.150476075501184
-0.148818107017241
-0.147078157460778
-0.145599840450035
-0.144632833984349
-0.144294288794954
-0.144544565408709
-0.145191328100408
-0.145927865556555
-0.146399892616019
-0.146284575924534
-0.145360499032968
-0.143549955002259
-0.14092422330389
-0.137674414172512
-0.134060220120931
-0.130353030545997
-0.126787593395692
-0.123529782305371
-0.120660810719872
-0.118174130666893
-0.115981927560342
-0.113931934218569
-0.111837914147099
-0.109524530419755
-0.106879284973474
-0.103895838854949
-0.100691299999187
-0.0974881638972369
-0.0945657414094789
-0.0921980050532845
-0.0905982803395897
-0.0898851014776789
-0.0900721726208475
-0.0910754002737091
-0.0927267066562341
-0.0947887048933184
-0.0969721018492262
-0.0989624043367492
-0.100460143697676
-0.101230797782308
-0.101152408200155
-0.100246076375618
-0.0986788067647112
-0.096736778238103
-0.094775383776252
-0.0931572473361366
-0.0921908447950327
-0.0920815386779701
-0.092904112110717
-0.0946008447118859
-0.0970025404670469
-0.099864226496444
-0.102905071834164
-0.105843899780631
-0.108425684561453
-0.110438294871155
-0.111721274869335
-0.112169731056113
-0.111736725079451
-0.110436632202944
-0.108349261627237
-0.105620851103912
-0.102455521626014
-0.0990916730944391
-0.095762701989273
-0.092648761642082
-0.0898331663352228
-0.0872802504682299
-0.0848485011308538
-0.0823431235393944
-0.0795985786527135
-0.0765691476272351
-0.0733990771502001
-0.0704456697680339
-0.0682383403417347
-0.0673718310985323
-0.0683490706836964
-0.071404931945336
-0.0763534354532776
-0.0825055621364267
-0.0887003316639182
-0.09347536106034
-0.0953737534232949
-0.0933454822513053
-0.0871619607255557
-0.0777330924335179
-0.0672069685749594
-0.058751464191046
-0.0559690364964739
-0.0619799896239245
-0.0783146485548366
-0.103858838034386
-0.134167830133141
-0.161467009722054
-0.175566602553924
-0.16572726638482
-0.123248539793696
-0.0442725122256398
0.0679144223004789
0.2018487367395
0.338718946256199
0.455244425372399
0.528225300194613
0.53980818433415
0.482124797992234
0.359944825478018
0.190421725598761
-0.000188360886943573
-0.182047517332966
-0.328030766123364
-0.419133028229491
-0.447669044203063
-0.417665995484722
-0.342662111471534
-0.24176354843041
-0.135117438588402
-0.0399096278829231
0.0323229245441591
0.0767241802412647
0.0945949186098255
0.0917392896845624
0.0762701363899186
0.0564545160081094
0.0390440152816695
0.0283275677367414
0.0259309728175307
0.0312182461449956
0.0420544625806865
0.0556726434026813
0.0694328715843685
0.081343097076418
0.090299638324436
0.096078970408902
0.0991579542454925
0.100453449156385
0.101058965557086
0.10202688823702
0.104213686362997
0.10818371246677
0.114159403944788
0.122009427123979
0.131274470798661
0.141235453688127
0.151026226030259
0.159782335173539
0.166803300163061
0.171694733876714
0.174454677459315
0.175478377003259
0.175475383359847
0.175316385658284
0.175847142456973
0.177716597986995
0.181261956285707
0.18647597066464
0.193057018063951
0.200519730282238
0.208330761486674
0.216033375868021
0.223333364736906
0.230132361787598
0.236508633607754
0.242657329403211
0.248810293249048
0.255158231956219
0.261794290268599
0.268688856076488
0.275693846431875
0.282564798886177
0.288983933102602
0.294568539752941
0.298856804369622
0.301276028805789
0.30111217270206
0.297508349465488
0.289517401168648
0.276218400359321
0.256883782630551
0.231162055040823
0.19922954831693
0.161867977193705
0.120441322120795
0.0767697579824749
0.0329221620000122
-0.0090343629315809
-0.0472825362538996
-0.0804578037167574
-0.107773888472468
-0.129054696618413
-0.144674538510689
-0.15542542372576
-0.162341944025952
-0.166518788135213
-0.168952938579753
-0.170433495430513
-0.171489483483508
-0.172393103746373
-0.173205595323916
-0.173847070978204
-0.174170879039174
-0.17402648995933
-0.173301152833776
-0.171937969777857
-0.169934940392096
-0.167334091317804
-0.164210168541262
-0.16066393901798
-0.156818146574528
-0.152809283093918
-0.148769663996184
-0.144801777748446
-0.140955548672053
-0.137222298957761
-0.133553197698041
-0.129897218212959
-0.126241310402766
-0.122631251983606
-0.119158762346197
-0.115915971126202
-0.112934795289511
-0.110138294537843
-0.107329021189619
-0.104226248811309
-0.100544940901449
-0.0960921130030527
-0.0908479825475949
-0.0850035272151299
-0.0789409911338712
-0.0731630868101816
-0.0681922996692267
-0.0644683701521678
-0.0622688332946511
-0.0616676597507812
-0.0625355168556158
-0.0645759186947862
-0.0673859987074612
-0.0705281888640088
-0.0735987535166274
-0.0762807214084432
-0.0783725517162626
-0.079789690599003
-0.0805430695631857
-0.0807048772761713
-0.0803753206692729
-0.0796624739723616
-0.0786804046495362
-0.0775612419671424
-0.0764693402360058
-0.0756039239114241
-0.0751812416319809
-0.0753960111559059
-0.076371258805677
-0.0781121986110974
-0.0804811351792809
-0.0832055970143803
-0.0859222111757846
-0.0882475364452134
-0.0898584917764466
-0.0905623698554019
-0.0903400632247937
-0.0893536184685581
-0.0879173613534993
-0.0864386672943455
-0.0853396518341868
-0.0849747099451511
-0.0855603547849931
-0.0871320325241306
-0.0895368557355974
-0.0924624114663375
-0.0954925774000504
-0.0981749177734572
-0.100083143301917
-0.100862643936045
-0.100255235449649
-0.0981074210045334
-0.0943710810560059
-0.0891047402384274
-0.0824783120758251
-0.0747777251568535
-0.0664020335192068
-0.0578469497223835
-0.0496744362868038
-0.0424741481928485
-0.0368244259124236
-0.0332559466568616
-0.0322122942633041
-0.0339946857829507
-0.038679654202204
-0.046011993775925
-0.055297866422217
-0.0653456088136691
-0.0745123969259718
-0.0809034100863874
-0.0827332622749921
-0.0788037923523079
-0.0689936275553282
-0.054613843202591
-0.038478764568699
-0.0245805502037864
-0.017337349540024
-0.0204932757025345
-0.0358627149513276
-0.0622060898568784
-0.0945717611812666
-0.124413781640517
-0.140680906499624
-0.131869718078713
-0.0887711420280921
-0.00737135898533255
0.108825566357375
0.247820440978315
0.390066971375804
0.511507793400487
0.588285008956311
0.60213021429626
0.545057211544515
0.421984427664607
0.2503797920278
0.0568476792592436
-0.128505482176602
-0.278421868904788
-0.373884006517634
-0.407242886925873
-0.382516345589201
-0.313110866836148
-0.217851530665084
-0.116492994296255
-0.0258117748401088
0.0429610769244822
0.0850698103055322
0.101665157271114
0.0981815238790286
0.0822372185054428
0.0616055094328515
0.0426607521016602
0.029506432625345
0.0237970266512758
0.0251146428494468
0.0316767923708231
0.041136253347211
0.0512749351108596
0.0604681696799031
0.0678789959956034
0.0734131355045271
0.0775117831834172
0.0808766260531615
0.084212265813213
0.0880436059687833
0.0926312638793779
0.0979779152087095
0.103899546204262
0.110128517408801
0.116416478629542
0.122610710493762
0.128686185334281
0.134728103777486
0.140875009209867
0.147246329789512
0.153883795853146
0.160729653941144
0.167648382946487
0.174480805987108
0.181108659306477
0.187507462975579
0.193773184748414
0.200117684682797
0.20683473663776
0.214242132715168
0.222608612365444
0.232079266048266
0.242618474842343
0.253991075469947
0.265795951981765
0.277550943707249
0.288808457302644
0.29926587158983
0.308831616572159
0.317619613160291
0.325867725309642
0.33380128054403
0.341481118836576
0.348680801452865
0.354828599779409
0.359030890945065
0.360171930424103
0.357067818117981
0.348643776059157
0.334103352002543
0.313063006685989
0.285632879963813
0.252432837893296
0.214541672348637
0.173386296129072
0.130586537107768
0.0877788851261366
0.0464477589288472
0.00779326020099266
-0.0273421571579028
-0.0584794148755389
-0.0854501450539259
-0.108310722358407
-0.127255129393936
-0.142553430707164
-0.154527254103742
-0.163555656983892
-0.17009212308163
-0.174670597609024
-0.177884976672961
-0.180338620013831
-0.182573462958922
-0.184997657492646
-0.187833099101639
-0.191098678451801
-0.194633590201261
-0.198152079688223
-0.201312015016856
-0.203778410752374
-0.205269568273872
-0.20558385845126
-0.204613386307042
-0.202352416159302
-0.198903363329979
-0.194475623071805
-0.189368445772774
-0.183932215142401
-0.178511730917922
-0.173385043752583
-0.16871600927988
-0.164535419643727
-0.160756417448209
-0.157219457598313
-0.153754221317166
-0.15024240662293
-0.146666455002539
-0.143134213875395
-0.139876296577317
-0.137218709437466
-0.135536173986313
-0.135191809165415
-0.136468848682729
-0.139502154357601
-0.144221401002308
-0.150321176893971
-0.157272180477868
-0.164380181976019
-0.170886669751824
-0.176091310557291
-0.179467012767087
-0.180737984157473
-0.179901087596514
-0.177188111326858
-0.172984760099329
-0.167733818255456
-0.161850437874192
-0.155667650796609
-0.14941575860993
-0.143227613258069
-0.137157733026087
-0.131206386552641
-0.125345623150251
-0.119547334094833
-0.113811469994441
-0.10818782182067
-0.102782264484827
-0.0977416554260198
-0.093219987225433
-0.0893372894245451
-0.0861466914221395
-0.0836212377839748
-0.0816623156438664
-0.0801214878228042
-0.0788232051592292
-0.0775799081092401
-0.0762004908410987
-0.0745011695546436
-0.0723283018182047
-0.0695944301577713
-0.0663165785742004
-0.0626375704290674
-0.0588129851232194
-0.055158724592421
-0.0519713562109431
-0.0494469692545727
-0.0476274715926213
-0.0463942136820582
-0.0455112948825002
-0.0447024093794463
-0.043733435207396
-0.0424726014894137
-0.0409102579355448
-0.0391360729737064
-0.0372864184869725
-0.0354833428673154
-0.0337862152522254
-0.0321687617296317
-0.0305222134585165
-0.0286757686300219
-0.0264230466693386
-0.0235476799329272
-0.0198481432437912
-0.0151656372370985
-0.00941643050305281
-0.00262340072327754
0.0050641060796152
0.0133724774702752
0.0219307172279003
0.030313635764811
0.0380854214359934
0.0448283199794623
0.0501498708993455
0.0536745357875937
0.0550360144667454
0.0538909080210686
0.0499705781347786
0.0431758180759555
0.0337001644345098
0.0221471329841013
0.009591817360387
-0.0024640228167312
-0.0122773215986631
-0.0181893369379808
-0.0190472459491699
-0.0146344560582291
-0.00599276880350539
0.00448636182442454
0.0132996748595239
0.0164406276611329
0.0103363744972194
-0.00702755900871979
-0.0350288012691925
-0.0696716124307117
-0.103491603556664
-0.126325120881586
-0.127004773875997
-0.0958103479798685
-0.0272451393625616
0.0775092969648214
0.209199445576277
0.35080288053552
0.479834278825303
0.572446329170851
0.608541729380184
0.576662243214432
0.477289917974972
0.323500093872295
0.138606537327171
-0.0486782829259264
-0.210297473828473
-0.324515496758478
-0.379782702717134
-0.375995377631052
-0.323128061814059
-0.237895496444308
-0.139496374695735
-0.0455415629160431
0.0309690087778676
0.0831607398764498
0.110261262739222
0.116357583479146
0.108450294901841
0.0943621971268844
0.0809684809743875
0.0730442820478675
0.0728279477501171
0.080223042461506
0.0934420840602987
0.109844446390276
0.126735998330555
0.141961653321052
0.15420957125271
0.163032146935447
0.168654413369081
0.171674538637302
0.172762617087538
0.172439102781705
0.170973784197767
0.168403212812778
0.164631271138509
0.159561824679499
0.15321485419963
0.145792779542164
0.137684181504738
0.129411252087149
0.121541020350007
0.114586996882335
0.108927395991507
0.104759715552197
0.102100897397495
0.100829674715463
0.100755938662231
0.101694624168543
0.103521674663688
0.106197464657483
0.10975554586268
0.114266369671489
0.119791827492073
0.126345268624487
0.133865296543645
0.142204664876491
0.151131964643398
0.160344591766352
0.169494487490243
0.178229302900778
0.186247697424365
0.193358593957651
0.199524784387382
0.204867803958487
0.209617934455302
0.21400988622766
0.218145448413557
0.221861174350061
0.224644909231984
0.225636080469705
0.223722730491928
0.217720177144682
0.206591815519269
0.189660428814448
0.166761776252684
0.138308464880399
0.10525466100304
0.068974071781661
0.0310798369079536
-0.00677682335683386
-0.043092446974684
-0.0766522715822948
-0.106609465855853
-0.132500465121467
-0.15420713208677
-0.171884340467435
-0.185872966649452
-0.196614341478248
-0.204576158181675
-0.210194986736685
-0.21383836722116
-0.215788887461435
-0.216251386952927
-0.215381025510007
-0.213325000819806
-0.210266246167864
-0.206455576750101
-0.202220648993192
-0.197945751526865
-0.194024623928048
-0.190796848578484
-0.188484125669718
-0.187143875255524
-0.186653592256313
-0.186731357378058
-0.186988240920025
-0.186999801735036
-0.186378907177658
-0.184832303272013
-0.182189147925532
-0.178399615290557
-0.173512027969547
-0.167643005997634
-0.160953617896515
-0.153636432419199
-0.145908908482323
-0.138003888650125
-0.130150844761174
-0.122549512420328
-0.115344968898317
-0.108615047381874
-0.102375906472762
-0.0966025385075488
-0.0912533999432154
-0.0862867997503175
-0.0816622576926483
-0.0773296010402761
-0.0732165436712408
-0.0692270955598131
-0.0652572120801235
-0.0612239293829191
-0.0570957992211202
-0.0529106515509474
-0.0487723803649211
-0.0448280076364315
-0.0412343959987698
-0.0381267924245225
-0.0355982530252638
-0.033692281966953
-0.0324046039663742
-0.0316872791311754
-0.0314504082165085
-0.0315615701636117
-0.0318473893145063
-0.0321025332799524
-0.0321086423943188
-0.0316610400889212
-0.0305972414558673
-0.0288201765537957
-0.0263108480327928
-0.0231284420166847
-0.019399004770409
-0.0152959955847202
-0.0110175764877503
-0.00676630434962528
-0.00273589735596802
0.000893885222781768
0.003958486156166
0.00631413129076691
0.00785541400044466
0.00854612647989009
0.00845437024889927
0.00777435087470405
0.00681629433687785
0.00595536635901474
0.00554726292828971
0.00583459532649933
0.00687607349234607
0.00852518098236033
0.0104679166949004
0.0123073515743015
0.0136658956254598
0.0142716887259106
0.0140046751356009
0.0128955028828258
0.0110879774484421
0.00878611022384034
0.00620677287369792
0.00355047419345389
0.00099112686364512
-0.00132326924608478
-0.00326973980722662
-0.0047562913642305
-0.00573476139763568
-0.00621441550040095
-0.00626795641056352
-0.00602429250123993
-0.00564821104519294
-0.00531271786664908
-0.00517222426087108
-0.00534286606777442
-0.00589143548884713
-0.00682988832586863
-0.0081112331239626
-0.00962566755205689
-0.0112008949391345
-0.0126136564012833
-0.0136175910251451
-0.0139855693255182
-0.0135558219396375
-0.0122653247680654
-0.0101552028369512
-0.00734277030067152
-0.00397032097974474
-0.000155034978197748
0.00403062095154335
0.00852769472958674
0.0132102228293503
0.0177836211859151
0.0217107301515227
0.0242178410025955
0.0244141930224855
0.0215201289712219
0.0151533180591358
0.0055863769713042
-0.00612187530976739
-0.0181985185237102
-0.0284601916716421
-0.0348120749207093
-0.0358422024035807
-0.0313642141967457
-0.0227448467108772
-0.0128742709999387
-0.00569972752679732
-0.00533898044286225
-0.0149036420022484
-0.0352696090103441
-0.0641056942667452
-0.0954865498204751
-0.120352800619691
-0.12793228659401
-0.108012776508016
-0.0536952333016109
0.0359793528423904
0.154267473411449
0.286512493962216
0.411898974253519
0.507107430541751
0.551227732428852
0.530787618639946
0.443526220133513
0.299734628329134
0.120601408780855
-0.0661316178220271
-0.232081707781957
-0.354124349311213
-0.418759261693639
-0.423955855191216
-0.378270255578266
-0.297769765228012
-0.201786487697729
-0.108653211472439
-0.0323821686346241
0.0191519603597696
0.0444212738511139
0.0471290395594664
0.0342867526751132
0.0140626199347045
-0.00610372383175399
-0.0207978876360565
-0.0272150253452882
-0.025082527836054
-0.0160923707940968
-0.00307124086761501
0.0108846427229653
0.0231278926115875
0.0319195708829045
0.0365952645979511
0.0374707397125835
0.0355671461416225
0.0322556633504165
0.0289152355304603
0.0266712722436948
0.0262480925566887
0.0279342201803902
0.0316357131525033
0.0369822542184424
0.0434522720029248
0.0504917510820939
0.0576108344681879
0.0644493784800385
0.0708072614913992
0.0766395269139566
0.0820219347916201
0.0870985533450299
0.0920270669036738
0.096937004708222
0.101910647591137
0.106987908019742
0.112188140795211
0.117536437785285
0.123081200836127
0.128893992971001
0.135050527192098
0.141600333295671
0.148538695397106
0.155795154447201
0.163247298860551
0.170758144095553
0.178223906253105
0.185611556029802
0.192966395896837
0.200379650830667
0.207920838408955
0.215553000595801
0.223055122569004
0.229973400993745
0.2356140327734
0.239079931776068
0.239346512084413
0.235368419966381
0.226207662015948
0.211170938533089
0.189939063416459
0.16266611733237
0.130024375674919
0.0931765312969961
0.0536699772798226
0.013265871283536
-0.0262674783315563
-0.0633577599814901
-0.096790286637094
-0.125801273006216
-0.150093186077827
-0.169780101807859
-0.18528360862194
-0.197204966729408
-0.206197791498995
-0.212860531454897
-0.21766232343495
-0.220910251715717
-0.222759544147512
-0.223259862733983
-0.222421929262807
-0.220283053228403
-0.216951415126542
-0.212617585419751
-0.207533879985494
-0.201972263254377
-0.196176151945359
-0.190320706421749
-0.184492100054661
-0.178690678168804
-0.17285673284595
-0.166911457730661
-0.160800694339452
-0.15452709156537
-0.148158820498125
-0.141810173692417
-0.135599149815995
-0.129595658008101
-0.12377770106854
-0.118010562230882
-0.112057086328257
-0.105618373271296
-0.0983959946889017
-0.0901607463557577
-0.0808101526238682
-0.070398602234525
-0.0591306080904444
-0.0473180561103395
-0.0353133034972378
-0.0234375148110652
-0.0119245268573226
-0.000894394893138235
0.00963961999814543
0.0197370829631599
0.0294824811723939
0.0389384354147313
0.0481134888802039
0.0569538357976383
0.0653619963504546
0.0732370977232861
0.0805229076527643
0.0872447214118359
0.0935182606376822
0.0995237550859323
0.105452771394572
0.111447282480706
0.117553631423019
0.123706760238859
0.12974661343625
0.135456478665483
0.140607989955976
0.145000187616028
0.148486267715798
0.150986476280716
0.152487072120002
0.153025210342437
0.15266095840026
0.151441534120338
0.149367560963612
0.146373594745831
0.14233304729709
0.137090808845718
0.130517707693265
0.122573037971532
0.113357579347003
0.103140676682271
0.0923502484980002
0.0815227138864026
0.0712193883283332
0.0619252245679246
0.0539527038345344
0.0473758277064097
0.0420145053090018
0.0374776182804563
0.0332560393900544
0.0288405620071195
0.0238309313491131
0.0180052017724497
0.011332535687337
0.00393170223000225
-0.00400548260310652
-0.0122976914004433
-0.0208381344545318
-0.0296227417249058
-0.0387395241734374
-0.0483274259169378
-0.0585188708598047
-0.0693807511514442
-0.0808659645987086
-0.0927842102568505
-0.104797894922439
-0.116446450587981
-0.127198927676166
-0.136529522978324
-0.144004209555316
-0.149360845671866
-0.152562752165678
-0.153809035944789
-0.153494577907889
-0.152126650501263
-0.150218848164676
-0.148190523670214
-0.146297394371257
-0.144607294833
-0.143019669232299
-0.141315275239684
-0.13921824701832
-0.136456050884769
-0.13280992801356
-0.128154122677196
-0.122483815157728
-0.115930227842557
-0.108760211970812
-0.101359452126616
-0.0942030331975851
-0.08782140064789
-0.082769819873697
-0.0796034816921864
-0.0788506123374516
-0.0809681147597816
-0.0862646992836474
-0.0947881293006554
-0.106193637550498
-0.119632475952911
-0.133713519954464
-0.146588806374284
-0.156192366508995
-0.160623383868363
-0.158617631899722
-0.15000677102367
-0.136036242991766
-0.119411369595966
-0.103976049373004
-0.0939993653141263
-0.0931425254276144
-0.103283062253484
-0.123460998484788
-0.149256933998464
-0.172890905065789
-0.184227075318726
-0.172682096899531
-0.129787779284129
-0.051903715466652
0.0576109733283554
0.187492422753158
0.31948062095262
0.431190260089523
0.5005437408033
0.51081763028221
0.455000740185387
0.338177827658761
0.177104432107799
-0.0030760701917818
-0.174162469926729
-0.310846545091611
-0.395715829272841
-0.422101398222912
-0.394263030636743
-0.32517029269428
-0.232722461626884
-0.135511646372612
-0.0491597333495154
0.0160617647232426
0.0560534441465823
0.0722869994603442
0.0702086187711772
0.0572019835537699
0.0406384251682263
0.0264021736808077
0.0180860330734508
0.0168632431715068
0.0218960147055323
0.0310616201130775
0.0417645072446689
0.0516434557774154
0.0590533790508674
0.0632782442653208
0.0644964783764492
0.0635633267040606
0.061694130840853
0.0601319844492693
0.0598685786453995
0.0614641538427015
0.0649863280241924
0.0700622539335445
0.0760174747103928
0.0820608693909246
0.0874703555658676
0.0917393181817219
0.0946576397168804
0.0963198755204102
0.0970712048619642
0.0974142875182649
0.0979042345582633
0.0990548377358886
0.101270100630198
0.104805454371693
0.109756410054533
0.116069675568038
0.123571308621609
0.1320062463818
0.141082917959697
0.150516289070528
0.160063370846724
0.169547082853258
0.178866982892807
0.187998039233544
0.196980508987036
0.205904560383797
0.214892555443168
0.22408033702457
0.233596974296081
0.243540778114075
0.25394879340691
0.26475834082165
0.275762969889905
0.286570677314345
0.296577397806253
0.304970892611037
0.310777089424263
0.312952337465663
0.310513074436002
0.302682962511483
0.289030374658078
0.269568052415959
0.244791721352733
0.215644617635559
0.183409306729005
0.149544902729941
0.115502716702994
0.0825608031596355
0.0517132930999634
0.0236335852046667
-0.00129313582554524
-0.0228937855577268
-0.0411237101773601
-0.0560074156229773
-0.0676201460435027
-0.0761072267437967
-0.0817223839823882
-0.0848594467276634
-0.0860550195652682
-0.0859506723451212
-0.0852178082915104
-0.0844620591461639
-0.0841328144298988
-0.0844645963722362
-0.0854695237829225
-0.0869854822114859
-0.0887667958020935
-0.0905890469259113
-0.0923332369505841
-0.094020380670768
-0.095784922327715
-0.0977980048272797
-0.100170646042613
-0.102874428680174
-0.105710334328602
-0.108337842208931
-0.110353931399224
-0.111394105365635
-0.11122164151758
-0.109778450028451
-0.107186984697658
-0.103710041142719
-0.0996871240457306
-0.0954691163928175
-0.0913680205878369
-0.0876289065928666
-0.0844211529806868
-0.0818396006453317
-0.0799058770560535
-0.0785656188523801
-0.0776852336555659
-0.0770572905432822
-0.0764230433628375
-0.0755139526059215
-0.0741048969490191
-0.0720648588134373
-0.0693894707550316
-0.0662041995759251
-0.0627351460074413
-0.0592537912393594
-0.0560100534599204
-0.0531724180068704
-0.050792688024769
-0.0488054750898678
-0.0470609570391927
-0.0453782285014035
-0.04360068996426
-0.0416367503255695
-0.0394769384113273
-0.0371876858150092
-0.0348882493192645
-0.0327193074390337
-0.0308115223554911
-0.029261896348341
-0.0281249891421926
-0.0274230878090934
-0.0271730722193202
-0.0274197066434444
-0.0282595613414689
-0.0298406349051821
-0.0323309387962428
-0.035861951472161
-0.0404646496116463
-0.046021534813529
-0.0522548574358503
-0.0587599475455444
-0.0650774564086025
-0.0707852004246462
-0.0755838433515053
-0.0793523278331173
-0.0821571007477895
-0.0842108582292249
-0.0857894023343695
-0.0871273811277533
-0.0883225363936522
-0.089279918638569
-0.0897193476496136
-0.0892514180699477
-0.0875043368761171
-0.0842641188672587
-0.0795826404245029
-0.0738161703869587
-0.0675789035299125
-0.0616234556248033
-0.0566829535414227
-0.0533194068996037
-0.0518179862205292
-0.0521500930798713
-0.0540069787449871
-0.0568874473871746
-0.0602121291652682
-0.0634340000482518
-0.0661198195355762
-0.0679886274039128
-0.0689081723006319
-0.0688628625634556
-0.067912514565589
-0.0661581732865465
-0.0637223177558367
-0.0607411953077837
-0.057361934262725
-0.0537387743272378
-0.0500294123928583
-0.0463987319963229
-0.0430372375233076
-0.0401932244457694
-0.038204786234282
-0.0375077751402983
-0.0385957034970454
-0.0419197164505846
-0.0477381781833358
-0.0559492074105845
-0.0659575322455566
-0.0766323911150937
-0.0864018809963881
-0.0935010343382359
-0.0963504912279898
-0.0939990648369499
-0.0865285876836646
-0.0753037782178276
-0.0629596185244549
-0.0530551608907362
-0.0493837027586652
-0.0550098103144627
-0.0711935882031455
-0.0964441573122694
-0.125992319136151
-0.151958690760259
-0.164396012080946
-0.153198618857585
-0.110622953311654
-0.0339079626352261
0.0726949912253124
0.197192509428999
0.32093325475792
0.421609094319023
0.477731500940624
0.473612876627133
0.403560052393064
0.274033051718352
0.102991257249944
-0.0835670880482146
-0.257026766717289
-0.392108486372813
-0.471807263952771
-0.490145225273124
-0.452260555504744
-0.372101980288708
-0.268565404223284
-0.161166057660508
-0.0662751991443193
0.00535494286457021
0.0494760067370403
0.0677481049720992
0.0660805392725272
0.0524758632446156
0.0349372765165481
0.0198682852411443
0.0111942105318197
0.0102268676154668
0.0161254191966336
0.0267074819879921
0.0393427305682606
0.0517052963451243
0.0622472027008218
0.0703537719651884
0.0762268663043765
0.0805952679928433
0.0843676453272245
0.0883277967051385
0.0929368115858442
0.0982663855533723
0.104052232884337
0.109831745989332
0.115117475398574
0.119557523669218
0.12304408799765
0.125748918879151
0.128084522171783
0.130607336313584
0.133890170969586
0.138394665559969
0.144371272869319
0.151806260742365
0.160424694962787
0.169747246741571
0.179188426088089
0.188175942505786
0.196267044509048
0.203238986856666
0.209136562064712
0.214267681535296
0.219146113262306
0.224388067250215
0.230577339450107
0.238122876132159
0.247140889680167
0.257395882435587
0.268325797181067
0.279155033197718
0.289070890019113
0.297414590186526
0.303828016083139
0.308307485063011
0.311144119569744
0.312766767185698
0.313534539859261
0.313541013334225
0.31248721949904
0.309659594936676
0.304020409914789
0.294390881080877
0.27968766412316
0.259164354779887
0.232610289368403
0.200467180686054
0.163838122350979
0.124381955420131
0.0841070374307598
0.0450987787705661
0.00923062294231756
-0.0220857543317116
-0.0480613872202168
-0.0685711779485347
-0.0840718243655537
-0.0954217301176124
-0.103649560986007
-0.109726653217455
-0.114392839149541
-0.118068214985939
-0.120860233996795
-0.122652218610835
-0.12324107920369
-0.122482363311364
-0.120401730532477
-0.117243456878472
-0.113445842607747
-0.109555130920541
-0.106107256620342
-0.103514796805682
-0.101992197213208
-0.101537486884619
-0.101969283506379
-0.103001339745065
-0.1043282736949
-0.105696611178985
-0.106943167915962
-0.10799526571094
-0.108840758031826
-0.109486068562441
-0.109923423115787
-0.1101225692004
-0.110049930742059
-0.109705014152643
-0.109155849375278
-0.10855533977877
-0.108127896439716
-0.108127317285704
-0.108778091689872
-0.110218828260005
-0.112465562667154
-0.115404721814758
-0.118814401447706
-0.122403718380105
-0.125856894539155
-0.128871350418454
-0.131184673026997
-0.132590759022868
-0.132948694634237
-0.132188180719131
-0.130312702884759
-0.127397622907845
-0.123577752950752
-0.119020717733676
-0.113889133475443
-0.108303169073829
-0.102319966618394
-0.0959435636345905
-0.0891682395702422
-0.0820434730819227
-0.0747360172415964
-0.0675600173529746
-0.0609533056858216
-0.0553961413614246
-0.0512914828340729
-0.0488438858530098
-0.0479790690947084
-0.0483352871700708
-0.0493348208276467
-0.0503177090722927
-0.0506996730148623
-0.0501086365906584
-0.0484613088982033
-0.0459601821112051
-0.0430157115613632
-0.0401205528400001
-0.0377155177552065
-0.0360863661927064
-0.0353172268591036
-0.035305661563461
-0.0358243872168936
-0.0366028893883123
-0.0374016666996692
-0.0380603001948263
-0.0385123998815995
-0.0387705947824227
-0.0388907889485029
-0.0389273631586141
-0.0388912909628334
-0.0387220551567146
-0.0382817791400193
-0.0373760228078194
-0.0358004996611761
-0.033407131978522
-0.0301772239223409
-0.026285218767506
-0.0221346472694553
-0.0183493205689687
-0.0157081871463772
-0.0150219277340628
-0.0169628916594814
-0.021875562973564
-0.029609053481523
-0.0394216020744315
-0.0500046309744104
-0.0596566571556844
-0.0666051306149764
-0.0694325082893535
-0.0675220040059789
-0.061410756149596
-0.052933544554091
-0.0450632881006283
-0.0414045107084365
-0.0453680362855186
-0.0591412416744194
-0.0826547653502069
-0.112812624313094
-0.143271567654515
-0.165002423001326
-0.167728986312254
-0.142128704747775
-0.0824317185313876
0.0111652473069275
0.130967332894607
0.261766001380574
0.382698712643546
0.470886119655461
0.506210686520966
0.476141113562135
0.379304886761858
0.226696320216105
0.0399875286692303
-0.152768187350208
-0.322966124666451
-0.447282994017823
-0.512024050383955
-0.514999708101745
-0.464703817870396
-0.377300423889935
-0.272415012970284
-0.168868906396084
-0.0813173148825
-0.0183650007706524
0.0177180341110943
0.0299475692443918
0.0247541346096974
0.00987329342031301
-0.00749884125359119
-0.0219586230497311
-0.0304407609467067
-0.0321269354555656
-0.0279101438627459
-0.0196558409000722
-0.00948182939916876
0.00078658684968786
0.00991526805860873
0.0173232968078428
0.0229742291782043
0.0271850256157834
0.0304323798387305
0.0332072803867198
0.0359347804233376
0.0389494289242652
0.042503080241172
0.0467802081152547
0.0519031288687686
0.0579218091968753
0.0647954179689671
0.0723800340824667
0.0804354661462992
0.0886553040577022
0.0967138250525244
0.104317352074757
0.111248423564936
0.117396168437332
0.122771121817879
0.12750495431526
0.131836186001676
0.136083893991094
0.140612841074743
0.145793883681127
0.151962474316878
0.159377197648052
0.16818146219737
0.178374436807038
0.189799495832111
0.202157009323932
0.215042541624514
0.228003580593761
0.240601655271694
0.252465011530336
0.26331994710988
0.272994130145259
0.281390419196811
0.288434531825947
0.294005609984236
0.297865640931079
0.299609282292283
0.298655486473169
0.29429368552268
0.285782095432849
0.272479812504992
0.253983910369452
0.230240854849611
0.201608089832035
0.168854261463057
0.133101204379286
0.0957223734806577
0.0582168302843803
0.0220751298090474
-0.0113519883763573
-0.0409734894060111
-0.0660548699776238
-0.0862758028900262
-0.101733335398457
-0.112885027590037
-0.120441585482886
-0.125231834416844
-0.128068376254153
-0.129638844432769
-0.130438181995766
-0.130746075958006
-0.130644312101909
-0.130063615475807
-0.128848486704149
-0.126829203076846
-0.123889704509672
-0.12001853933438
-0.115330838278272
-0.110055529912119
-0.104492382088238
-0.09895269363057
-0.0937009340234065
-0.0889118196549835
-0.0846510958093485
-0.0808817138873783
-0.0774913899339902
-0.0743328648772926
-0.0712653315833792
-0.0681858947292208
-0.0650440178778737
-0.0618380251634125
-0.0585981545225353
-0.0553635907321865
-0.0521612296867277
-0.0489925389890222
-0.0458325635353654
-0.0426420460767882
-0.039389738130567
-0.0360777976455776
-0.0327603155640225
-0.0295456518238277
-0.0265784570325708
-0.0240053941417103
-0.0219357387189741
-0.0204104936109159
-0.0193903168349338
-0.0187654075326398
-0.0183829606819816
-0.0180827035550256
-0.0177295049472443
-0.0172338553200814
-0.0165553019331907
-0.0156895990248892
-0.0146459965414672
-0.0134250403062214
-0.0120078649843442
-0.0103642907791249
-0.00847955544347823
-0.00639066909269943
-0.00421723510365477
-0.00217187772710416
-0.00054286227290241
0.000347413544835255
0.000195429201357441
-0.00123404665274981
-0.00407291037291264
-0.00833205912596758
-0.0138976992914557
-0.0205366164197777
-0.0279089572805875
-0.0355925697969967
-0.0431253028064027
-0.0500673299549084
-0.0560752853623654
-0.0609688964896005
-0.0647655772465287
-0.06766365497737
-0.0699703279562729
-0.071990894926214
-0.0739132685622803
-0.0757285635540068
-0.0772199629851209
-0.0780289471825243
-0.0777782549841248
-0.0762078732460426
-0.0732758822879073
-0.0691930305653347
-0.0643895701444066
-0.0594394765223738
-0.0549775196657027
-0.051635251080538
-0.050000130285039
-0.0505811246753672
-0.0537562546862479
-0.05968736528336
-0.0682101737427106
-0.0787321863606813
-0.090185684863521
-0.101081030812792
-0.109687309580995
-0.114337613653481
-0.113820974669955
-0.107788250604556
-0.097072603598723
-0.083815334509522
-0.0713024796460006
-0.0634603181430938
-0.0640268105739997
-0.0755032310873049
-0.0980814408774253
-0.128815254610694
-0.16133150237747
-0.186331617078758
-0.193003438135128
-0.171252112544933
-0.114402801988984
-0.0217888175098667
0.099501877854106
0.234412024662552
0.361661388887644
0.45741422176836
0.500249713437923
0.476301706900644
0.383181715278255
0.231462505500995
0.0430984045380385
-0.152964304647651
-0.326878238875451
-0.454066686292669
-0.519878840768662
-0.521657983965546
-0.467958745915629
-0.375437338244028
-0.264465267079192
-0.154671710492384
-0.0614285852205292
0.00612316383420703
0.0453891637546209
0.0592692529329064
0.0542720047052487
0.0383900119203275
0.0192344074521597
0.00274062264357028
-0.00745017107606508
-0.0100021872637009
-0.00546373651553846
0.00437615326431636
0.0171651903942975
0.0305669148674506
0.0426724633545406
0.0522287381940375
0.0587009144960815
0.0622048226426457
0.0633519334865958
0.0630511116963661
0.0623078836564782
0.0620529876116087
0.0630186171289527
0.0656669492854909
0.0701655764326712
0.0764004358649192
0.0840179798214185
0.092491676158417
0.101209537929511
0.109576526866158
0.117119134882845
0.123573365749939
0.128936295779016
0.133467368850453
0.137637088942567
0.142033802750118
0.147249042569181
0.153765170990258
0.161865983221404
0.171584614316896
0.182696755231329
0.194761457812372
0.20720526509754
0.219437024745229
0.230971607159755
0.241533843269637
0.251113253742177
0.259948998990442
0.268443240522284
0.277024303960117
0.285998460535153
0.295431940432418
0.305092048657592
0.314455546904583
0.322773699493629
0.329172213766955
0.332760901252992
0.332730287156526
0.328419461618854
0.319350423924437
0.305236455166685
0.285980821525608
0.261682644357229
0.232657935744185
0.199469540648788
0.16294736342562
0.124176728334414
0.0844409150057708
0.045120565812966
0.00756942027077276
-0.0270060782559466
-0.0576399064187639
-0.0836617409921118
-0.104717633660917
-0.120767129221418
-0.132066769963853
-0.139142233369764
-0.142743418304234
-0.143775187307067
-0.143203265309423
-0.141945833250526
-0.14076952425585
-0.140209288128252
-0.140525674528188
-0.141704545878304
-0.143496663324895
-0.145489171643009
-0.147197130438569
-0.148160267083421
-0.148028644183654
-0.146622462136592
-0.143956634277484
-0.140228935808851
-0.135778565363761
-0.131027018683229
-0.126414088268297
-0.122339463084913
-0.11911682154458
-0.116944134364748
-0.115891474635636
-0.115905391850886
-0.116826522975332
-0.118415279155608
-0.12038042108887
-0.122407621373035
-0.124188363233455
-0.125450984965898
-0.125993407859892
-0.125712141738123
-0.124618247513407
-0.122831550850149
-0.120550307166975
-0.118002435190479
-0.115392307821104
-0.112859874876997
-0.110464683299765
-0.108197838203053
-0.10601453916654
-0.103872951424901
-0.101764112951421
-0.0997222810300451
-0.0978137903554334
-0.0961118043080679
-0.0946699433579958
-0.0935063265012509
-0.092601570556604
-0.0919049376526653
-0.091338759589807
-0.0907953843565351
-0.0901299070988775
-0.089159377182197
-0.0876803293642587
-0.0855106211408341
-0.0825507543189792
-0.0788478843867789
-0.0746377367690033
-0.0703407565587405
-0.0665009392633108
-0.0636753641952428
-0.0623014360546297
-0.0625787840569077
-0.0643993083884635
-0.0673438170949498
-0.0707438039543473
-0.0737902530322035
-0.0756633326533744
-0.0756579846089321
-0.0732872039266647
-0.0683526554111515
-0.0609781265241113
-0.0516044581947413
-0.0409462561439657
-0.0299130269756316
-0.019501868973748
-0.0106748588098519
-0.00423950192561345
-0.000752823625644954
-0.000467466829695056
-0.0033302404164011
-0.00902941114493223
-0.0170699326552491
-0.026843980894732
-0.0376664111674713
-0.0487637798176341
-0.0592350871803596
-0.0680294409922924
-0.0739962757602443
-0.0760488363775199
-0.0734428215398822
-0.066120813026094
-0.0550256063792823
-0.0422573901103368
-0.0309532252867402
-0.0248099747122061
-0.0272534616527213
-0.0403656807585264
-0.0637944412072905
-0.093952731595415
-0.123833443106749
-0.143692845301349
-0.142687050839949
-0.111300429755299
-0.0441331874070209
0.0576096988070134
0.184681475601189
0.320058547846743
0.441228366631073
0.52430754621678
0.549218344844726
0.504688268611276
0.391681966617404
0.224151076389593
0.0266753728918581
-0.170528658619217
-0.337953783844343
-0.452825522951733
-0.503274610504491
-0.489746334244707
-0.423567720787331
-0.323346908559821
-0.210334730910679
-0.103957366241766
-0.0184827023889925
0.0386552209620195
0.0668259976606296
0.0708085434662696
0.0586042783952881
0.0390834449490358
0.0199952064656347
0.00668084493796223
0.00160375591103383
0.00460710177846616
0.0136708716145389
0.0258828428682508
0.0383575635397753
0.0489120006718071
0.0564065952902263
0.0607580521183452
0.06270367179302
0.0634340967922769
0.064210880480619
0.0660569632999853
0.0695675864590518
0.0748508115258172
0.0815791093201624
0.0891186466863207
0.0966989394550745
0.103588429376017
0.109247204382507
0.113434098472896
0.116251805611355
0.118122130771375
0.119695340562293
0.121711491784044
0.124843704034373
0.129559213238863
0.136031194783951
0.144122932663462
0.153448226862505
0.163491862387884
0.173756676953465
0.183894825717214
0.193784304602953
0.20352802737977
0.213377497242825
0.223608568282627
0.234394100991999
0.245720450034672
0.257379271943543
0.2690373180392
0.280355135904882
0.291103862587989
0.30122715833953
0.310814428416027
0.31998461138229
0.328714448357741
0.336669152815969
0.34309922785922
0.346852631743547
0.346519182214238
0.340682186754579
0.328214725057035
0.308540078923276
0.281785823953164
0.248794714218882
0.210997993445083
0.170191778441722
0.128274854055046
0.0870057187878159
0.0478230203541904
0.0117529370417523
-0.0205952783356534
-0.0489643664562917
-0.0733471111655661
-0.093883374228696
-0.110784716648105
-0.124299730484738
-0.134715762751425
-0.142379631231693
-0.147715046077419
-0.151218248723746
-0.153423621930216
-0.15484381097771
-0.155899824318902
-0.15686196188393
-0.157820314907364
-0.158694528873368
-0.159279752763157
-0.159314333025074
-0.158549660160645
-0.1568054818062
-0.154002687904478
-0.150175071863282
-0.145467054836658
-0.140123647519037
-0.134473593244378
-0.128901316081679
-0.123802881016713
-0.11952722190765
-0.116313120553398
-0.114238962726974
-0.113201973621198
-0.112936436270051
-0.113069396405009
-0.113201095304715
-0.112988845865076
-0.112210367889463
-0.110788371487814
-0.108771932521013
-0.106286574114466
-0.10347611082812
-0.100460010840466
-0.0973207761223259
-0.0941215959771328
-0.0909413984290338
-0.0879071728543436
-0.0852044374464758
-0.0830555627506724
-0.0816692090881242
-0.0811772805911157
-0.0815829749129821
-0.0827410078012404
-0.0843793906677401
-0.0861563839260743
-0.0877336843001883
-0.0888426935647265
-0.0893254429105677
-0.089142224769946
-0.0883497266311569
-0.0870624258396172
-0.0854133088235004
-0.0835266950100873
-0.0815079561497957
-0.0794464248073457
-0.0774229218680969
-0.075513648028947
-0.0737861651499123
-0.0722879782233271
-0.0710316422760115
-0.0699817492305522
-0.0690491550111017
-0.0680970756453309
-0.0669622662511397
-0.0654919138993691
-0.0635926620273225
-0.0612823944160301
-0.0587293144543434
-0.0562596248976151
-0.0543188139830011
-0.0533839602222864
-0.0538422646580755
-0.0558667007594505
-0.059325930602813
-0.0637595275295907
-0.0684333556104152
-0.0724690423753457
-0.0750214716047236
-0.075463577006924
-0.0735319731979893
-0.0693930808548982
-0.0636082690268492
-0.0570043108439165
-0.050483344411164
-0.0448246924148954
-0.0405332791233341
-0.0377756610183667
-0.0364190795886021
-0.0361584527091152
-0.0366890848716519
-0.0378666747367156
-0.0397960349070265
-0.042807582078772
-0.0473139056643133
-0.053580179806902
-0.0614792103279522
-0.0703204373541992
-0.0788333784694229
-0.0853506436553994
-0.0881830884261876
-0.0861224025880043
-0.0789561381773245
-0.0678477145372377
-0.0554306632332385
-0.0455022631369377
-0.0422797862065398
-0.0492939353773922
-0.0681172819513159
-0.0972301072619643
-0.131378030340028
-0.161744888556174
-0.177133446174102
-0.166122218835042
-0.119886405438811
-0.0351013085206514
0.0838286828065298
0.223974097901509
0.365054389375901
0.482680184768792
0.553185985361684
0.55901641183493
0.493284293925046
0.362161801563966
0.184259779633951
-0.0130144396223444
-0.199227492935243
-0.347287531129606
-0.43874280618372
-0.466743074700924
-0.436146229781211
-0.361068884693743
-0.260798696736944
-0.155258441009037
-0.0611234850123684
0.010660879040931
0.0556891935745117
0.0754027562142973
0.0753701419275062
0.063142516309508
0.0462411432306462
0.0306737972202319
0.02016520746411
0.0160845584942526
0.0179031018083548
0.0239377537158368
0.0321325130791037
0.0406836029471105
0.0484018401660338
0.0547988758993134
0.0599581228997166
0.0642914967698901
0.0682866684263639
0.0723235516914742
0.0765965123743703
0.0811354799968751
0.0858877576583948
0.0908100982050609
0.0959276682119096
0.101337225186406
0.107157530761173
0.11345166817053
0.120156504141084
0.12705124348796
0.133782283409932
0.139941660529696
0.145178348507946
0.149310558660499
0.152405235441162
0.1547982596492
0.157044170734615
0.159804336909602
0.163701946748478
0.169184205569662
0.176431437221929
0.185338571271537
0.195571355368308
0.206675968167407
0.218205071394406
0.229820871663914
0.241346430053971
0.252755532871895
0.264111666652338
0.275481184525153
0.286850611643025
0.298072803260447
0.308853797513888
0.318776154661736
0.32734112155481
0.334006660238525
0.338204003421453
0.339330014603185
0.336729935489231
0.329696958417145
0.317515058127534
0.29955811664151
0.275436057107761
0.245156239022767
0.20925493606526
0.168854858097077
0.125620102413131
0.0816041513057347
0.0390118595194664
-8.37510592533834e-05
-0.0340182678274981
-0.0617540741680738
-0.0829975396543859
-0.0981917751828838
-0.108386453868865
-0.115011442946606
-0.119600163596979
-0.123517207796762
-0.127741630349846
-0.132744144436795
-0.138476299280066
-0.14446647414843
-0.149995657501705
-0.154310054052808
-0.156821116480716
-0.157248230874732
-0.155674317345818
-0.152506971072795
-0.148362045051144
-0.143905928913067
-0.139701266550802
-0.136096136348692
-0.13318119423889
-0.130818658919658
-0.128727440442963
-0.126594721952076
-0.124178676621376
-0.121371261247462
-0.118203978853879
-0.1147998936264
-0.111295375591769
-0.107767078275896
-0.104197796908072
-0.100498633515796
-0.0965799241185221
-0.0924398429990188
-0.088228416726474
-0.0842522592197523
-0.0809094203921257
-0.0785737120807066
-0.0774702067782424
-0.0775888572111437
-0.078669866166364
-0.0802683387285853
-0.0818768960318616
-0.0830641329626218
-0.0835820664401983
-0.0834088653282875
-0.0827184673775079
-0.0817952670474909
-0.08092911398785
-0.0803278953806827
-0.0800735685350129
-0.0801291162305559
-0.080385852307951
-0.0807281026455428
-0.081088139018615
-0.0814690312424011
-0.0819258642076081
-0.0825131688597625
-0.0832222164342677
-0.0839388256066315
-0.0844461662835081
-0.0844791953004702
-0.0838150415235938
-0.0823665838218478
-0.0802423276218165
-0.077746510640445
-0.0753145777074416
-0.0734020324702506
-0.0723606908618993
-0.072340633344959
-0.0732482033584269
-0.0747731963663682
-0.0764771506936515
-0.0779157926503746
-0.0787582646188077
-0.078867468702689
-0.0783193241175315
-0.0773592061697853
-0.0763137692515614
-0.0754885896461917
-0.0750829033119475
-0.0751431960235226
-0.0755622784080997
-0.0761158851291821
-0.0765198024643753
-0.0764891442423467
-0.0757864274337231
-0.0742531374120762
-0.0718267029046029
-0.0685483255888017
-0.0645657737844773
-0.0601302979652037
-0.0555818546230026
-0.0513160226661308
-0.047731172075107
-0.0451632757747138
-0.0438231509101031
-0.0437525270787042
-0.0448103360016956
-0.0466918074622584
-0.0489746563280109
-0.0511819917811448
-0.0528509245387823
-0.0535971519045642
-0.0531667061665867
-0.0514660818135083
-0.0485631336705162
-0.0446563650949603
-0.040020266382804
-0.0349456220332784
-0.029699258835641
-0.0245218292432181
-0.0196651401418818
-0.0154493043067256
-0.012304748162534
-0.0107627225274025
-0.011372517126891
-0.0145498223426644
-0.0203897690896329
-0.0284998397374646
-0.0379141114269491
-0.0471384119424089
-0.0543489720608315
-0.0577318378941606
-0.0559140826584081
-0.0484067271431444
-0.0359579190674816
-0.020708121038411
-0.00605242056322481
0.00384641732592989
0.00488561120868001
-0.00590369968138956
-0.0292237173795167
-0.0625841660776573
-0.09988535618992
-0.131779756259147
-0.146963476824298
-0.134346854209201
-0.0857963716454055
0.00111263522308673
0.12106095011815
0.260396720121006
0.398498143333656
0.511148971704026
0.575408542791263
0.574906374759831
0.504172478603218
0.370699839325497
0.193973946532092
0.00156367839306056
-0.176743016455407
-0.315189711933314
-0.397054835723571
-0.417229163988564
-0.381960402446326
-0.306154486518398
-0.20919582382834
-0.110469461889051
-0.025642672318397
0.035605350863839
0.0701830744134479
0.0807179336156444
0.073709870126029
0.0573095841778458
0.0392735988896211
0.0254853645204842
0.0192206223186654
0.0211353690684894
0.0298074799732765
0.0425872006561904
0.0565052761201953
0.0690338307220883
0.0785714356553475
0.0846083565905765
0.0876036920745482
0.0886609568460146
0.0891155996191981
0.0901459613177682
0.0924936757062972
0.0963401967698272
0.10134346430593
0.106801443719379
0.11188393446522
0.115865017642351
0.118297241326212
0.119092198119899
0.118502885210863
0.117030871454733
0.115297083679921
0.113915695535952
0.113399375329866
0.114108068290613
0.116239207318943
0.119848312351963
0.124885689230078
0.131235858053969
0.138749482269803
0.147261563214455
0.156594150612149
0.166547008640338
0.176885124756948
0.1873355753473
0.19760502175387
0.207421406291139
0.216591343649
0.225053803322882
0.232906959889894
0.240391323941012
0.247826187846146
0.255512019573596
0.263622406689346
0.272111978205
0.280661610587044
0.288672042559717
0.295305736512451
0.299567955369511
0.300413430529031
0.296864352225078
0.288126844940774
0.273694567466111
0.253428596056224
0.227602764950165
0.196904758835232
0.162387260938251
0.125370952729503
0.0873106916827806
0.0496448079063907
0.0136522556112779
-0.0196582508027259
-0.0496090412354229
-0.0758565371450995
-0.0983414156625363
-0.117202484353491
-0.13267842435946
-0.14502268939331
-0.154451266463887
-0.16113239194993
-0.165214605001586
-0.166878167352062
-0.166388126688962
-0.164127228233675
-0.160593610250524
-0.156359771243161
-0.152002055117516
-0.148019567577323
-0.144764504887467
-0.142401327346539
-0.14090236475963
-0.140076912657977
-0.139623934402126
-0.139196628179701
-0.13846870190197
-0.137194237998599
-0.135253660455183
-0.132678081719226
-0.129645451639763
-0.126446288571894
-0.123423939378342
-0.120901644523874
-0.119113018794769
-0.118152083449624
-0.117953915200306
-0.11830914857476
-0.118907644409472
-0.119401159215822
-0.119473124682552
-0.118904986661958
-0.117630696427127
-0.11577169077178
-0.113643684085121
-0.111725975043503
-0.110587276176135
-0.110771607613589
-0.112662069802397
-0.116353749325981
-0.12157270412249
-0.127671597708525
-0.133714692416745
-0.138640706465313
-0.141469071859182
-0.141500819181131
-0.138464528517338
-0.132571197903565
-0.124465589056564
-0.115088295938632
-0.105484305381226
-0.0966043744004693
-0.0891436594248003
-0.0834500578693674
-0.0795165917793521
-0.0770516946967655
-0.0756023566163902
-0.0746923831891394
-0.0739359158539476
-0.073096452438854
-0.0720810834127333
-0.0708819877298063
-0.069494639010212
-0.0678484600523775
-0.0657785775697558
-0.0630497768155088
-0.0594229339314653
-0.0547384694379595
-0.0489863813388108
-0.0423388855949131
-0.0351358021478857
-0.0278285321125742
-0.0209000682298338
-0.0147825605043488
-0.00979047285971821
-0.00607935846587442
-0.0036321568959557
-0.00227004471378871
-0.00168390833527665
-0.00148342544898633
-0.00126055978107144
-0.000661380048430963
0.000544564626731526
0.0024118861686128
0.00479894196851353
0.00738985059714893
0.00976028650254884
0.0114761791579814
0.0122026079248139
0.0117935139073616
0.0103352815277123
0.00812932104116527
0.00561685547599231
0.00326694482388496
0.00146022913729514
0.000402062836945023
8.91710404063937e-05
0.000336790261672791
0.000854237084393167
0.00134248547371743
0.00158246933455264
0.00148868243771392
0.00111621740437252
0.00062485516257586
0.000215560481341917
5.99493488072163e-05
0.000242350370213403
0.000728930823775851
0.00137090436171877
0.00194061090466903
0.0021917301581901
0.0019294178547161
0.00107360934731343
-0.00030055662303618
-0.00195719571202641
-0.0035337249346878
-0.00460941908110286
-0.00479319533162641
-0.00380820364980643
-0.00155045380862084
0.0018931253447023
0.00626745048206199
0.0111986669028568
0.0162480544770065
0.0209506227524546
0.0248298986001857
0.0273960502198611
0.0281478727949066
0.0266039215240376
0.022380467500116
0.0153151145378283
0.00561111323335564
-0.0060426379026484
-0.0184297218417977
-0.0298897755361818
-0.0385525173972312
-0.0427117910707135
-0.0412861881808751
-0.0342707132544928
-0.0230535955935738
-0.010465845599157
-0.000459274446382091
0.00262363793311819
-0.0048767189242208
-0.0247011519294902
-0.0555562777126359
-0.0924569194045059
-0.126840922936363
-0.147654735582629
-0.143401692509814
-0.104878596088823
-0.028058136584424
0.0836152388583992
0.218276595427965
0.356606029107427
0.474855679957214
0.549513568549199
0.562610526707802
0.506312125868792
0.38545614005132
0.217164918127429
0.0274750153294818
-0.154184147463093
-0.301191455733457
-0.394989753459646
-0.428135768283544
-0.404599365808782
-0.337556403649159
-0.245526639831358
-0.147986326847918
-0.0615197181570954
0.00274669784689019
0.040120525004315
0.0518415982383911
0.043514535090763
0.0230287699089859
-0.00149558939256486
-0.0233267757687421
-0.0380823297724962
-0.043997465660594
-0.0416151248370242
-0.0330994369278658
-0.0213979373331707
-0.00945021705828515
0.000418048459553433
0.00684578050103505
0.00952510869045207
0.00906868958552926
0.00672499484199299
0.00402132229253154
0.00241040293575981
0.00298259830543144
0.00628577004982137
0.0122720661739494
0.0203675338396649
0.0296390652116131
0.0390168275423014
0.0475225729940154
0.0544574624090247
0.0595166002334342
0.0628171132151152
0.0648460924899034
0.0663486843767298
0.0681828006300231
0.0711665883238596
0.075941177158049
0.0828670677623832
0.0919685152840473
0.102935183128743
0.115182671842711
0.127963122558501
0.140505905771018
0.152159961293877
0.162507271932758
0.171423128134024
0.179072197683816
0.1858460116496
0.192261983069702
0.198851752090496
0.206065057979032
0.21420547582012
0.22340073989564
0.233599112716378
0.244578586148907
0.255957673130482
0.267202112923128
0.27762804271352
0.286408093759565
0.292592110572933
0.2951567860334
0.293094876917199
0.285542795066593
0.271928204938158
0.252104557176467
0.226435374737325
0.195800755690068
0.161518264749003
0.125192129540878
0.0885206832552168
0.0530983272860683
0.0202455250608645
-0.00910808697194126
-0.0344730200547701
-0.0557785129112167
-0.0732891190107517
-0.0874800007154618
-0.0989005779066531
-0.108057615773065
-0.115340339904034
-0.120994394804167
-0.125135459420216
-0.127784364171317
-0.128906644358895
-0.128447810727179
-0.12636472868976
-0.122657452842478
-0.117402836393661
-0.110784172942546
-0.103105557468264
-0.0947802555077673
-0.086290210248708
-0.0781255394226444
-0.0707223315862433
-0.0644186870734046
-0.0594410592062021
-0.055918891899605
-0.0539121650091615
-0.0534306605033453
-0.0544290636158164
-0.0567765981196873
-0.0602170535655417
-0.0643460399125899
-0.0686306182433782
-0.0724815326586219
-0.0753661072011046
-0.0769301919237564
-0.077089211832455
-0.0760555527667546
-0.0742898959969575
-0.0723896605578834
-0.0709480104026047
-0.0704239521509207
-0.0710561649880639
-0.0728353499418637
-0.0755306757582545
-0.0787530413250287
-0.0820346883632293
-0.0849092173609404
-0.0869829618700572
-0.087992919681065
-0.0878463957954838
-0.0866355520875193
-0.0846203443588926
-0.0821785232234896
-0.0797305248333625
-0.0776559886157777
-0.0762225164871315
-0.0755438363556166
-0.0755753244550331
-0.0761440447942535
-0.0770021168068144
-0.0778882278567411
-0.078582219356123
-0.0789408336220686
-0.0789080915986639
-0.0785006810650476
-0.0777758587001388
-0.0767945261757304
-0.0755930682282977
-0.0741733624677774
-0.0725126688808308
-0.0705874723598849
-0.0684012371441376
-0.0660064088873237
-0.0635140383914997
-0.0610876655351664
-0.0589209418911981
-0.0572019484425324
-0.0560717926637005
-0.055589181088322
-0.055713326931981
-0.0563130128027075
-0.0572009181556946
-0.0581828290738719
-0.0591050153160499
-0.0598826303229991
-0.0604981519494016
-0.0609701020882252
-0.0613049117712484
-0.0614537480663582
-0.0612967173577641
-0.0606673742479052
-0.0594136752790851
-0.057474097855008
-0.0549375296403511
-0.0520583108129055
-0.0492136090639079
-0.0468129229874053
-0.0451889823705648
-0.0445069715331775
-0.0447218899545239
-0.0455957745476355
-0.0467654465583168
-0.0478356896349374
-0.0484676746580205
-0.0484388154285459
-0.0476642219485541
-0.0461847494119638
-0.0441358966032835
-0.0417126102730263
-0.0391391793529048
-0.0366456393806324
-0.03444712324759
-0.0327224195942306
-0.0315915032155973
-0.0310960899714567
-0.0311896637350451
-0.0317426465405255
-0.0325647043554961
-0.0334410482276439
-0.0341749719010124
-0.034626304857766
-0.0347354299533621
-0.0345248069455077
-0.0340745858383363
-0.0334761714374338
-0.0327767154085617
-0.0319354142799533
-0.0308146408276951
-0.0292218235393458
-0.0270015699020263
-0.0241560790636307
-0.0209530737358436
-0.0179729415952941
-0.0160565762777637
-0.0161424825633115
-0.01901851925597
-0.0250476587503479
-0.0339461440963172
-0.0446895476119642
-0.0555978574601022
-0.0646111248109647
-0.0697215863135491
-0.0694856881776173
-0.0635074507431707
-0.0527687467223891
-0.0396874034818156
-0.0278156099399253
-0.0211520855844276
-0.0231295611937229
-0.0354431013668714
-0.056982780818892
-0.0831949182071414
-0.106184889267906
-0.115765692831614
-0.101448053373304
-0.0550929332651107
0.0263263538189595
0.138588923084887
0.269462961000046
0.399840504896754
0.506859694057449
0.568535122006823
0.568875569820102
0.502149780806087
0.375028010921473
0.205828117315507
0.0209087023264546
-0.150893318104621
-0.284302687203215
-0.362551132883439
-0.380058963236275
-0.342402861398544
-0.263882731578888
-0.163566970242472
-0.060935884520396
0.0278466993335113
0.092332685131688
0.128592995566466
0.138567059498332
0.128391181314434
0.106268116511251
0.0804150905568481
0.0574892665463291
0.0416969076436304
0.0346023650423464
0.0355071695050933
0.0421873697885648
0.0517577724390388
0.061460831520204
0.0692373386198795
0.0740089522705139
0.0756749631670894
0.0748855781900273
0.0726917059256118
0.070181067323696
0.0681929529490735
0.0671665046900175
0.0671325400317737
0.0678201839951114
0.0688265478554274
0.0697930678684996
0.0705421374062795
0.0711454612930925
0.0719148260968106
0.0733230561982626
0.0758767455768015
0.0799728027623713
0.0857767402402952
0.0931589743068685
0.101713008383509
0.110856340754352
0.119987176012486
0.128648268138338
0.136644037551738
0.144072487540625
0.151263618703883
0.158648233691055
0.166602537852445
0.175318253162748
0.184736096696616
0.194558400278656
0.204332009822671
0.213572614738623
0.221891678411324
0.229089329888662
0.23518921987783
0.240409607108951
0.24508275042567
0.249546732664752
0.25403715776944
0.258601082447134
0.263045674892136
0.266924586275501
0.269559684783713
0.270094996481391
0.267580606672803
0.261083221046672
0.249815147358132
0.233265822976729
0.211313344527483
0.184291704940165
0.152994627486095
0.118608296937754
0.0825801775698564
0.046445756640671
0.0116455137209977
-0.0206326968722303
-0.0495569341670618
-0.0746852720647812
-0.0959333851241811
-0.113493528735582
-0.127730983614638
-0.139083423431806
-0.147981314207983
-0.154797678887343
-0.159827338664794
-0.163290760677632
-0.165355243331091
-0.166164908550079
-0.165870277708581
-0.164648778699709
-0.16271029228877
-0.16028667902972
-0.157609602299096
-0.154884684947515
-0.152270554551755
-0.149868695945843
-0.147725787698175
-0.14584635019846
-0.144211443151556
-0.1427990501731
-0.141602800681258
-0.140646357527084
-0.139990215851887
-0.139726432706597
-0.139957027193159
-0.14075554961496
-0.142118761334576
-0.143923686073739
-0.145909608825753
-0.147700614956804
-0.148871363753528
-0.149041494613744
-0.14797028619374
-0.145619925509624
-0.142165068214145
-0.13794455595118
-0.133370968323943
-0.128827624868051
-0.124585545989094
-0.120763784120649
-0.117339483475971
-0.114196410907928
-0.111189520175351
-0.108201693495928
-0.105176128391618
-0.102119958665061
-0.099086554584306
-0.0961509077036307
-0.0933918976120925
-0.0908876831178101
-0.0887201052920596
-0.0869768204585345
-0.0857404331635658
-0.0850621720069523
-0.0849286672883641
-0.0852373411969707
-0.0857947638861664
-0.0863440730045339
-0.0866166863081653
-0.0863946564798088
-0.0855657373573427
-0.0841541983822335
-0.0823161914112391
-0.0802979090944184
-0.0783658558896902
-0.0767281910567685
-0.075470652739607
-0.0745273374420171
-0.0736958286458305
-0.0726918666273541
-0.0712269014184441
-0.0690867344256794
-0.066191353346773
-0.0626224968636492
-0.0586137365004087
-0.054506217027529
-0.0506804342861403
-0.047479297351188
-0.0451392023028712
-0.0437436333995602
-0.0432084374332362
-0.04330064119838
-0.0436853297864442
-0.043989692488178
-0.0438711608391788
-0.0430772772749667
-0.0414869521571337
-0.0391249853612787
-0.0361448636557427
-0.0327806180474405
-0.0292772315379926
-0.0258179639059194
-0.0224711841398002
-0.0191751754052468
-0.0157672429382622
-0.0120478962583319
-0.00785811767104377
-0.00314259129268055
0.00202375957063934
0.00745552179172021
0.012914878222665
0.0181845643472585
0.0231252624286461
0.0276919057146025
0.0318987248042151
0.0357433435269567
0.039118539614513
0.0417494489796371
0.0431899025163881
0.0428950488087178
0.0403639362570439
0.0353226525570195
0.0279018270911517
0.0187549419676288
0.00906739276535733
0.000421566623382363
-0.00548926485407467
-0.00726745626103428
-0.00426419933718217
0.00303223582752708
0.0128047545814146
0.0220321850071758
0.0269992237195068
0.0241711921238251
0.0113017909563651
-0.0114645444611618
-0.0408036448165193
-0.0700476396879861
-0.0898771277234372
-0.0899332039710008
-0.0611779316607289
0.00142588811104048
0.0965556053871752
0.215213206865598
0.341064112100811
0.452710519811783
0.527677370092553
0.547338012335961
0.501584344473299
0.391931419925742
0.232044817190364
0.0453535152389783
-0.139738355619737
-0.295802183400552
-0.401931155240597
-0.447496586210696
-0.433324052933141
-0.370266866033144
-0.275827887858604
-0.16987376115643
-0.0705383360728356
0.00882242756247022
0.0611627403265204
0.0857351848419979
0.0868501666841958
0.0719206404045453
0.0493451602289708
0.0266911814696106
0.0094711937878796
0.000612892449369127
0.000558476304623842
0.00781753241824948
0.0197525482325284
0.0333873189123614
0.0460771933991082
0.0559457557115526
0.0620593886550366
0.0643686904908629
0.0634864958465523
0.0603912653405934
0.0561408371044353
0.0516591828370034
0.047625997605088
0.0444650953238953
0.0424014330888511
0.0415445022138678
0.0419594527852782
0.043702492754987
0.0468161097975081
0.0512955141706576
0.0570466785513518
0.0638576351593233
0.0713990630331169
0.0792596198465617
0.0870091822804437
0.0942732426070695
0.100797837379498
0.106488131351076
0.111413399271143
0.115782002042361
0.119897051065936
0.124104588246235
0.128742979087002
0.134098504173588
0.140370386595326
0.147648617500643
0.155908088805169
0.16502088963079
0.174784673733906
0.184960056860338
0.195306545224414
0.205606516669369
0.215670295471772
0.225320711451902
0.234360877715427
0.242533204646885
0.249480386537142
0.254719801103246
0.257641062910677
0.257532448712756
0.253636454447467
0.245229421617688
0.231716447368125
0.212730945609803
0.188227075792698
0.158551408885736
0.124477908882547
0.0871901070321719
0.048199644501524
0.00920274544350614
-0.0281068461893029
-0.0622348226035877
-0.0920533722434638
-0.116904783620317
-0.13662434939311
-0.151485417210612
-0.162086490801628
-0.169209863165322
-0.173682228232572
-0.176261564237868
-0.177564117938829
-0.178033654433201
-0.177945295240371
-0.177430866167534
-0.176513000076419
-0.175140052652013
-0.173219589825077
-0.170651141721868
-0.167358043479153
-0.163315348755836
-0.158568686775299
-0.153239146650541
-0.14751205640962
-0.14161212595475
-0.135772061190174
-0.130203725707958
-0.125078098928592
-0.120513617524462
-0.116566711763113
-0.113218628147395
-0.110359761256311
-0.107781843151857
-0.1051925686089
-0.102262507752635
-0.0987015241398745
-0.0943467258859261
-0.0892333528839503
-0.0836197927169587
-0.0779499916412809
-0.0727573136248129
-0.0685352281743471
-0.0656130179146365
-0.0640738825295387
-0.0637394309685576
-0.0642239027599282
-0.065040033794605
-0.0657227380643234
-0.0659324468169618
-0.0655094457602004
-0.0644701323696357
-0.0629568580532461
-0.0611661225311238
-0.0592817903829664
-0.0574329271139758
-0.0556843106501985
-0.0540553800936413
-0.0525533714108881
-0.0512021381322551
-0.050052311842089
-0.0491697454536931
-0.0486115160120834
-0.0484047656915581
-0.0485399586131485
-0.0489797087576165
-0.0496740725610686
-0.050569217522487
-0.0516008273788254
-0.0526740834925358
-0.0536428200332675
-0.0543049572110435
-0.0544258881539205
-0.0537880491947565
-0.0522503941580824
-0.0497939844715917
-0.046533903866369
-0.042691507890272
-0.0385375228268732
-0.0343273282923254
-0.0302502046590819
-0.02640560476402
-0.0228069557800309
-0.0194032615555176
-0.0161052368663825
