Timestamp,3/5/2024 9:50:03 AM
Interval,0.004
Channel name,"Input 0"
Unit,"V"
0,2.3788232101651374
0.004,2.379148417909164
0.008,2.3749207172368187
0.012,2.373294678516686
0.016,2.3775223791890312
0.02,2.3889046502299607
0.024,2.3915063121821731
0.028,2.3859777805337217
0.032,2.3840265340695623
0.036,2.3784980024211109
0.04,2.3840265340695623
0.044,2.3905306889500935
0.048,2.3911811044381466
0.052,2.3911811044381466
0.056,2.3947583896224387
0.06,2.39085589669412
0.064,2.3837013263255358
0.068,2.3788232101651374
0.072,2.376221548212925
0.076,2.3781727946770843
0.08,2.3752459249808453
0.084,2.3739450940047391
0.088,2.3745955094927922
0.092,2.3771971714450046
0.096,2.3830509108374827
0.1,2.3905306889500935
0.104,2.3918315199261997
0.108,2.3801240411412437
0.112,2.3661401081481017
0.116,2.3625628229638096
0.12,2.3632132384518627
0.124,2.3667905236361548
0.128,2.3570342913153581
0.132,2.3521561751549598
0.136,2.3557334603392519
0.14,2.3628880307078362
0.144,2.3658149004040752
0.148,2.3619124074757565
0.152,2.3576847068034112
0.156,2.3557334603392519
0.16,2.3567090835713316
0.164,2.3612619919877034
0.168,2.3771971714450046
0.172,2.3895550657180138
0.176,2.3954088051104918
0.18,2.4045146219432354
0.184,2.4152464774961118
0.188,2.4168725162162445
0.192,2.4227262556087226
0.196,2.4256531253049616
0.2,2.4178481394483242
0.204,2.4132952310319524
0.208,2.4158968929841649
0.212,2.4233766710967757
0.216,2.4276043717691209
0.22,2.431181656953413
0.224,2.4308564492093865
0.228,2.4370353963458911
0.232,2.445165589946555
0.236,2.4516697448270861
0.24,2.4604503539158031
0.244,2.4594747306837235
0.248,2.448092459642794
0.252,2.4461412131786346
0.256,2.4461412131786346
0.26,2.4503689138509799
0.264,2.453946199035272
0.268,2.4503689138509799
0.272,2.4454907976905815
0.276,2.4529705758031923
0.28,2.4828896882536355
0.284,2.5368741737620439
0.288,2.6155744478164706
0.292,2.7027301232155878
0.296,2.8071218090481125
0.3,2.9254974278737791
0.304,3.0149295574810822
0.308,3.0520032403001096
0.312,2.9609450719726738
0.316,2.689396605710499
0.32,2.3801240411412437
0.324,2.1859750179573894
0.328,2.1089007826230954
0.332,2.1072747439029627
0.336,2.1462996731861494
0.34,2.2149185071757529
0.344,2.2750819398206659
0.348,2.3319932950253133
0.352,2.3885794424859341
0.356,2.4279295795131475
0.36,2.4477672518987674
0.364,2.4578486919635907
0.368,2.4630520158680156
0.372,2.462726808123989
0.376,2.4643528468441218
0.38,2.4663040933082812
0.384,2.4711822094686795
0.388,2.4773611566051841
0.392,2.4809384417894762
0.396,2.4822392727655824
0.4,2.485491350205848
0.404,2.4900442586222198
0.408,2.4981744522228837
0.412,2.5037029838713352
0.416,2.511182761983946
0.42,2.514109631680185
0.424,2.5115079697279725
0.428,2.5053290225914679
0.432,2.5056542303354945
0.436,2.5108575542399194
0.44,2.514109631680185
0.444,2.5134592161921319
0.448,2.5173617091204505
0.452,2.5225650330248754
0.456,2.5300448111374862
0.46,2.5365489660180174
0.464,2.5329716808337253
0.468,2.5293943956494331
0.472,2.5391506279702298
0.476,2.5482564448029734
0.48,2.5511833144992124
0.484,2.5635412087722216
0.488,2.5794763882295229
0.492,2.5853301276220009
0.496,2.588907412806293
0.5,2.5963871909189038
0.504,2.6054930077516474
0.508,2.6162248633045238
0.512,2.6220786026970018
0.516,2.632160042761825
0.52,2.6367129511781968
0.524,2.6432171060587279
0.528,2.6474448067310732
0.532,2.6536237538675778
0.536,2.6568758313078433
0.54,2.6559002080757637
0.544,2.6575262467958964
0.548,2.6559002080757637
0.552,2.6493960531952325
0.556,2.6399650286184624
0.56,2.6282575498335063
0.564,2.6119971626321785
0.568,2.6015905148233287
0.572,2.5872813740861602
0.576,2.5658176629804075
0.58,2.534597719553858
0.584,2.5059794380795211
0.588,2.4789871953253169
0.592,2.4558974454994313
0.596,2.4367101886018645
0.6,2.4227262556087226
0.604,2.4035389987111557
0.608,2.3856525727896951
0.612,2.3700426010764204
0.616,2.3596359532675706
0.62,2.3528065906430129
0.624,2.3498797209467739
0.628,2.3420747350901365
0.632,2.335895787953632
0.636,2.330692464049207
0.64,2.3365462034416851
0.644,2.3420747350901365
0.648,2.3485788899706677
0.652,2.3450016047863755
0.656,2.3423999428341631
0.66,2.3375218266737647
0.664,2.3349201647215523
0.668,2.338822657649871
0.672,2.3450016047863755
0.676,2.3482536822266411
0.68,2.3466276435065083
0.684,2.3423999428341631
0.688,2.3404486963700037
0.692,2.3466276435065083
0.696,2.3521561751549598
0.7,2.3557334603392519
0.704,2.3606115764996503
0.708,2.3664653158921283
0.712,2.3726442630286328
0.716,2.3775223791890312
0.72,2.3775223791890312
0.724,2.3830509108374827
0.728,2.3905306889500935
0.732,2.3944331818784121
0.736,2.399636505782837
0.74,2.3993112980388105
0.744,2.3993112980388105
0.748,2.4054902451753151
0.752,2.4045146219432354
0.756,2.4009373367589433
0.76,2.3957340128545184
0.764,2.3941079741343856
0.768,2.3973600515746512
0.772,2.4097179458476603
0.776,2.4204498014005367
0.78,2.4201245936565101
0.784,2.4126448155438993
0.788,2.4113439845677931
0.792,2.4103683613357134
0.796,2.4045146219432354
0.8,2.4006121290149167
0.804,2.3986608825507574
0.808,2.3989860902947839
0.812,2.3973600515746512
0.816,2.3950835973664653
0.82,2.3950835973664653
0.824,2.3950835973664653
0.828,2.393782766390359
0.832,2.3918315199261997
0.836,2.3905306889500935
0.84,2.3872786115098279
0.844,2.3892298579739872
0.848,2.3921567276702262
0.852,2.387929026997881
0.856,2.3843517418135889
0.86,2.3853273650456686
0.864,2.3905306889500935
0.868,2.3947583896224387
0.872,2.3928071431582794
0.876,2.3941079741343856
0.88,2.3921567276702262
0.884,2.3869534037658013
0.888,2.3895550657180138
0.892,2.3973600515746512
0.896,2.399636505782837
0.9,2.3986608825507574
0.904,2.3954088051104918
0.908,2.3902054812060669
0.912,2.3941079741343856
0.916,2.4002869212708902
0.92,2.4022381677350495
0.924,2.4087423226155806
0.928,2.4149212697520852
0.932,2.4184985549363773
0.936,2.4230514633527491
0.94,2.4233766710967757
0.944,2.4211002168885898
0.948,2.4237018788408022
0.952,2.4233766710967757
0.956,2.4220758401206695
0.96,2.419474178168457
0.964,2.4149212697520852
0.968,2.4188237626804039
0.972,2.4188237626804039
0.976,2.4152464774961118
0.98,2.4181733471923508
0.984,2.4191489704244304
0.988,2.4227262556087226
0.992,2.4233766710967757
0.996,2.4191489704244304
1,2.4184985549363773
1.004,2.4178481394483242
1.008,2.4207750091445632
1.012,2.4256531253049616
1.016,2.4207750091445632
1.02,2.4158968929841649
1.024,2.4188237626804039
1.028,2.4256531253049616
1.032,2.4259783330489881
1.036,2.4214254246326163
1.04,2.4204498014005367
1.044,2.4162221007281914
1.048,2.4080919071275275
1.052,2.404839829687262
1.056,2.404839829687262
1.06,2.407766699383501
1.064,2.4087423226155806
1.068,2.4032137909671292
1.072,2.4061406606633682
1.076,2.4142708542640321
1.08,2.4113439845677931
1.084,2.4054902451753151
1.088,2.4071162838954479
1.092,2.4132952310319524
1.096,2.4129700232879259
1.1,2.41069356907974
1.104,2.4123196077998728
1.108,2.4168725162162445
1.112,2.4119944000558462
1.116,2.3999617135268636
1.12,2.3944331818784121
1.124,2.3931323509023059
1.128,2.3859777805337217
1.132,2.3863029882777482
1.136,2.3866281960217748
1.14,2.3830509108374827
1.144,2.3905306889500935
1.148,2.4041894141992088
1.152,2.4298808259773068
1.156,2.4542714067792986
1.16,2.4591495229396969
1.164,2.4640276391000953
1.168,2.4789871953253169
1.172,2.4871173889259808
1.176,2.4874425966700073
1.18,2.4806132340454496
1.184,2.4692309630045202
1.188,2.4637024313560687
1.192,2.4575234842195641
1.196,2.4523201603151392
1.2,2.4529705758031923
1.204,2.4532957835472189
1.208,2.4490680828748737
1.212,2.4435395512264222
1.216,2.4386614350660238
1.22,2.4428891357383691
1.224,2.4555722377554048
1.228,2.4669545087963343
1.232,2.4711822094686795
1.236,2.4682553397724405
1.24,2.4728082481888123
1.244,2.4793124030693434
1.248,2.4789871953253169
1.252,2.4793124030693434
1.256,2.4793124030693434
1.26,2.485491350205848
1.264,2.4994752831989899
1.268,2.5502076912671328
1.272,2.6363877434341703
1.276,2.7394785982905887
1.28,2.8718381501093972
1.284,3.0058237406483386
1.288,3.1069633490405977
1.292,3.1489151480200235
1.296,3.0926542083034292
1.3,2.8542769319319632
1.304,2.5358985505299643
1.308,2.2988221051346045
1.312,2.1957312502781861
1.316,2.1915035496058408
1.32,2.2347561795613728
1.324,2.3150824923359323
1.328,2.3898802734620403
1.332,2.4428891357383691
1.336,2.4958979980146978
1.34,2.5248414872330613
1.344,2.5398010434582829
1.348,2.5433783286425751
1.352,2.5508581067551859
1.356,2.5619151700520888
1.36,2.5658176629804075
1.364,2.5638664165162481
1.368,2.5648420397483278
1.372,2.5700453636527527
1.376,2.5658176629804075
1.38,2.5684193249326199
1.384,2.5719966101169121
1.388,2.5697201559087262
1.392,2.5749234798131511
1.396,2.577199934021337
1.4,2.5785007649974432
1.404,2.577199934021337
1.408,2.5788259727414697
1.412,2.5807772192056291
1.416,2.5814276346936822
1.42,2.5843545043899212
1.424,2.5957367754308507
1.428,2.5911838670144789
1.432,2.591834282502532
1.436,2.5921594902465586
1.44,2.5980132296390366
1.444,2.6022409303113818
1.448,2.6054930077516474
1.452,2.6106963316560723
1.456,2.6194769407447893
1.46,2.6318348350177985
1.464,2.6360625356901437
1.468,2.6370381589222234
1.472,2.6458187680109404
1.476,2.6539489616116043
1.48,2.6617539474682417
1.484,2.6708597643009853
1.488,2.6871201515023131
1.492,2.7085838626080658
1.496,2.7176896794408094
1.5,2.7206165491370484
1.504,2.7310231969458982
1.508,2.7433810912189074
1.512,2.7469583764031995
1.516,2.7576902319560759
1.52,2.7690725029970054
1.524,2.7749262423894834
1.528,2.7723245804372709
1.532,2.7615927248843946
1.536,2.7537877390277572
1.54,2.7450071299390402
1.544,2.7319988201779779
1.548,2.7176896794408094
1.552,2.7056569929118268
1.556,2.6890713979664724
1.56,2.6624043629562948
1.564,2.626306303369347
1.568,2.5895578282943461
1.572,2.5541101841954514
1.576,2.5215894097927958
1.58,2.4968736212467775
1.584,2.4682553397724405
1.588,2.4445151744585019
1.592,2.4331329034175724
1.596,2.4201245936565101
1.6,2.4019129599910229
1.604,2.3856525727896951
1.608,2.3784980024211109
1.612,2.3752459249808453
1.616,2.3667905236361548
1.62,2.3609367842436768
1.624,2.3528065906430129
1.628,2.3450016047863755
1.632,2.338822657649871
1.636,2.3391478653938975
1.64,2.3404486963700037
1.644,2.3502049286908004
1.648,2.3570342913153581
1.652,2.3612619919877034
1.656,2.3619124074757565
1.66,2.3602863687556237
1.664,2.359310745523544
1.668,2.3576847068034112
1.672,2.359310745523544
1.676,2.3638636539399158
1.68,2.3690669778443407
1.684,2.3723190552846063
1.688,2.3768719637009781
1.692,2.3755711327248719
1.696,2.3768719637009781
1.7,2.3817500798613764
1.704,2.3869534037658013
1.708,2.3960592205985449
1.712,2.3915063121821731
1.716,2.396709636086598
1.72,2.3986608825507574
1.724,2.3954088051104918
1.728,2.3941079741343856
1.732,2.396709636086598
1.736,2.396709636086598
1.74,2.3954088051104918
1.744,2.387929026997881
1.748,2.382075287605403
1.752,2.387929026997881
1.756,2.3924819354142528
1.76,2.3931323509023059
1.764,2.3840265340695623
1.768,2.3846769495576154
1.772,2.3911811044381466
1.776,2.3898802734620403
1.78,2.3892298579739872
1.784,2.3898802734620403
1.788,2.3915063121821731
1.792,2.3915063121821731
1.796,2.3895550657180138
1.8,2.3892298579739872
1.804,2.3807744566292968
1.808,2.3775223791890312
1.812,2.3843517418135889
1.816,2.3788232101651374
1.82,2.3784980024211109
1.824,2.3856525727896951
1.828,2.3950835973664653
1.832,2.3993112980388105
1.836,2.4012625445029698
1.84,2.4009373367589433
1.844,2.3983356748067308
1.848,2.3924819354142528
1.852,2.3895550657180138
1.856,2.3915063121821731
1.86,2.3973600515746512
1.864,2.3970348438306246
1.868,2.3980104670627043
1.872,2.4002869212708902
1.876,2.4002869212708902
1.88,2.3973600515746512
1.884,2.3983356748067308
1.888,2.4019129599910229
1.892,2.404839829687262
1.896,2.4087423226155806
1.9,2.4051650374312885
1.904,2.3980104670627043
1.908,2.3941079741343856
1.912,2.3986608825507574
1.916,2.4019129599910229
1.92,2.4054902451753151
1.924,2.4149212697520852
1.928,2.4149212697520852
1.932,2.4175229317042977
1.936,2.4201245936565101
1.94,2.4243522943288554
1.944,2.4259783330489881
1.948,2.4197993859124836
1.952,2.4237018788408022
1.956,2.4324824879295193
1.96,2.4389866428100504
1.964,2.4360597731138114
1.968,2.4344337343936786
1.972,2.4331329034175724
1.976,2.4259783330489881
1.98,2.4184985549363773
1.984,2.4178481394483242
1.988,2.4237018788408022
1.992,2.4305312414653599
1.996,2.4334581111615989
2,2.4337833189056255
2.004,2.4399622660421301
2.008,2.4438647589704487
2.012,2.4399622660421301
2.016,2.4441899667144753
2.02,2.4467916286666878
2.024,2.4380110195779707
2.028,2.4266287485370412
2.032,2.4230514633527491
2.036,2.4305312414653599
2.04,2.442238720250316
2.044,2.448092459642794
2.048,2.4461412131786346
2.052,2.4441899667144753
2.056,2.4467916286666878
2.06,2.4428891357383691
2.064,2.4354093576257583
2.068,2.4331329034175724
2.072,2.4344337343936786
2.076,2.4545966145233251
2.08,2.4672797165403608
2.084,2.4721578327007592
2.088,2.4828896882536355
2.092,2.4923207128304057
2.096,2.4958979980146978
2.1,2.4874425966700073
2.104,2.4776863643492106
2.108,2.4721578327007592
2.112,2.4698813784925733
2.116,2.4708570017246529
2.12,2.4663040933082812
2.124,2.4601251461717766
2.128,2.4555722377554048
2.132,2.4571982764755376
2.136,2.4624016003799625
2.14,2.4633772236120421
2.144,2.4666293010523077
2.148,2.4669545087963343
2.152,2.4630520158680156
2.156,2.4614259771478828
2.16,2.4604503539158031
2.164,2.4646780545881484
2.168,2.4711822094686795
2.172,2.4718326249567326
2.176,2.4692309630045202
2.18,2.4669545087963343
2.184,2.465653677820228
2.188,2.4734586636768654
2.192,2.5131340084481053
2.196,2.5846797121339478
2.2,2.6702093488129321
2.204,2.7791539430618286
2.208,2.9011068470717873
2.212,3.0146043497370556
2.216,3.0793206907983404
2.22,3.056881356460508
2.224,2.8659844107169192
2.228,2.5505328990111593
2.232,2.2832121334213298
2.236,2.1433728034899104
2.24,2.1147545220155735
2.244,2.1462996731861494
2.248,2.2061378980870359
2.252,2.2812608869571704
2.256,2.3531317983870395
2.26,2.416547308472218
2.264,2.4594747306837235
2.268,2.4763855333731044
2.272,2.4828896882536355
2.276,2.4871173889259808
2.28,2.4897190508781932
2.284,2.4926459205744322
2.288,2.4975240367348306
2.292,2.5063046458235476
2.296,2.5108575542399194
2.3,2.5115079697279725
2.304,2.5180121246085037
2.308,2.5284187724173535
2.312,2.5329716808337253
2.316,2.5339473040658049
2.32,2.5358985505299643
2.324,2.5417522899224423
2.328,2.5424027054104954
2.332,2.5398010434582829
2.336,2.5371993815060705
2.34,2.545654782850761
2.344,2.5557362229155842
2.348,2.5612647545640357
2.352,2.5638664165162481
2.356,2.560289131331956
2.36,2.5638664165162481
2.364,2.5726470256049652
2.368,2.580126803717576
2.372,2.5872813740861602
2.376,2.5895578282943461
2.38,2.588907412806293
2.384,2.5882569973182399
2.388,2.5999644761031959
2.392,2.6185013175127096
2.396,2.6285827575775329
2.4,2.6360625356901437
2.404,2.646143975754967
2.408,2.6611035319801886
2.412,2.6737866339972243
2.416,2.6848436972941272
2.42,2.6945999296149239
2.424,2.7056569929118268
2.428,2.7170392639527563
2.432,2.7222425878571812
2.436,2.7199661336489953
2.44,2.7160636407206766
2.444,2.7212669646251015
2.448,2.7228930033452343
2.452,2.7254946652974468
2.456,2.7254946652974468
2.46,2.7193157181609422
2.464,2.7157384329766501
2.468,2.7076082393759862
2.472,2.6991528380312957
2.476,2.683542866318021
2.48,2.660778324236162
2.484,2.6315096272737719
2.488,2.603541761287488
2.492,2.5752486875571776
2.496,2.5476060293149203
2.5,2.5193129555846099
2.504,2.4962232057587244
2.508,2.4747594946529716
2.512,2.4490680828748737
2.516,2.4263035407930147
2.52,2.4022381677350495
2.524,2.3876038192538545
2.528,2.3765467559569515
2.532,2.3680913546122611
2.536,2.3606115764996503
2.54,2.3567090835713316
2.544,2.3550830448511988
2.548,2.3469528512505349
2.552,2.3437007738102693
2.556,2.3472780589945614
2.56,2.3456520202744287
2.564,2.3414243196020834
2.568,2.3384974499058444
2.572,2.3342697492334992
2.576,2.3339445414894726
2.58,2.3284160098410212
2.584,2.3280908020969946
2.588,2.3336193337454461
2.592,2.3365462034416851
2.596,2.338822657649871
2.6,2.3463024357624818
2.604,2.3560586680832785
2.608,2.359310745523544
2.612,2.3580099145474378
2.616,2.3537822138750926
2.62,2.3524813828989863
2.624,2.3557334603392519
2.628,2.3567090835713316
2.632,2.3541074216191191
2.636,2.3583351222914644
2.64,2.3684165623562876
2.644,2.3684165623562876
2.648,2.3635384461958893
2.652,2.3671157313801814
2.656,2.3719938475405797
2.66,2.3771971714450046
2.664,2.3726442630286328
2.668,2.3706930165644735
2.672,2.3723190552846063
2.676,2.3687417701003142
2.68,2.3635384461958893
2.684,2.362237615219783
2.688,2.3609367842436768
2.692,2.3645140694279689
2.696,2.3684165623562876
2.7,2.3719938475405797
2.704,2.3807744566292968
2.708,2.3833761185815092
2.712,2.3827257030934561
2.716,2.3794736256531905
2.72,2.373294678516686
2.724,2.3713434320525266
2.728,2.3719938475405797
2.732,2.3719938475405797
2.736,2.373294678516686
2.74,2.3736198862607125
2.744,2.3706930165644735
2.748,2.3645140694279689
2.752,2.3602863687556237
2.756,2.359310745523544
2.76,2.3671157313801814
2.764,2.3716686397965532
2.768,2.373294678516686
2.772,2.3742703017487656
2.776,2.3758963404688984
2.78,2.3706930165644735
2.784,2.3645140694279689
2.788,2.3641888616839424
2.792,2.3680913546122611
2.796,2.3726442630286328
2.8,2.3775223791890312
2.804,2.3856525727896951
2.808,2.3863029882777482
2.812,2.3859777805337217
2.816,2.3895550657180138
2.82,2.3892298579739872
2.824,2.3941079741343856
2.828,2.3931323509023059
2.832,2.3954088051104918
2.836,2.3986608825507574
2.84,2.3999617135268636
2.844,2.3993112980388105
2.848,2.3950835973664653
2.852,2.4002869212708902
2.856,2.4080919071275275
2.86,2.4054902451753151
2.864,2.4012625445029698
2.868,2.3980104670627043
2.872,2.4009373367589433
2.876,2.4097179458476603
2.88,2.4152464774961118
2.884,2.413620438775979
2.888,2.4103683613357134
2.892,2.4058154529193416
2.896,2.4015877522469964
2.9,2.4009373367589433
2.904,2.4002869212708902
2.908,2.3973600515746512
2.912,2.4002869212708902
2.916,2.4009373367589433
2.92,2.4022381677350495
2.924,2.4022381677350495
2.928,2.407766699383501
2.932,2.4074414916394744
2.936,2.4038642064551823
2.94,2.4035389987111557
2.944,2.4022381677350495
2.948,2.399636505782837
2.952,2.3957340128545184
2.956,2.4009373367589433
2.96,2.4002869212708902
2.964,2.3960592205985449
2.968,2.3905306889500935
2.972,2.3918315199261997
2.976,2.3999617135268636
2.98,2.3989860902947839
2.984,2.39085589669412
2.988,2.387929026997881
2.992,2.3882542347419076
2.996,2.3882542347419076
3,2.3889046502299607
3.004,2.3950835973664653
3.008,2.3973600515746512
3.012,2.3957340128545184
3.016,2.3915063121821731
3.02,2.3915063121821731
3.024,2.3853273650456686
3.028,2.3863029882777482
3.032,2.3924819354142528
3.036,2.4071162838954479
3.04,2.4211002168885898
3.044,2.4315068646974396
3.048,2.4370353963458911
3.052,2.4435395512264222
3.056,2.4448403822025284
3.06,2.4409378892742097
3.064,2.4363849808578379
3.068,2.431181656953413
3.072,2.422401047864696
3.076,2.4158968929841649
3.08,2.4175229317042977
3.084,2.4175229317042977
3.088,2.4168725162162445
3.092,2.4142708542640321
3.096,2.4162221007281914
3.1,2.4181733471923508
3.104,2.4243522943288554
3.108,2.4266287485370412
3.112,2.425327917560935
3.116,2.4207750091445632
3.12,2.4233766710967757
3.124,2.4256531253049616
3.128,2.4276043717691209
3.132,2.4305312414653599
3.136,2.4220758401206695
3.14,2.422401047864696
3.144,2.4214254246326163
3.148,2.4276043717691209
3.152,2.4506941215950064
3.156,2.4926459205744322
3.16,2.5671184939565137
3.164,2.6559002080757637
3.168,2.7713489572051913
3.172,2.896228730911389
3.176,2.9976935470476747
3.18,3.0464747086516581
3.184,3.01135227229679
3.188,2.8006176541675813
3.192,2.4890686353901401
3.196,2.2464636583463289
3.2,2.1352426098892465
3.204,2.1170309762237594
3.208,2.140771141537698
3.212,2.1996337432065047
3.216,2.2646752920118161
3.22,2.3170337388000917
3.224,2.3674409391242079
3.228,2.4054902451753151
3.232,2.4266287485370412
3.236,2.4367101886018645
3.24,2.4386614350660238
3.244,2.439311850554077
3.248,2.442238720250316
3.252,2.445165589946555
3.256,2.4506941215950064
3.26,2.448092459642794
3.264,2.4519949525711127
3.268,2.4565478609874845
3.272,2.4565478609874845
3.276,2.4584991074516438
3.28,2.4640276391000953
3.284,2.4689057552604936
3.288,2.4747594946529716
3.292,2.4809384417894762
3.296,2.4851661424618214
3.3,2.4838653114857152
3.304,2.485491350205848
3.308,2.4926459205744322
3.312,2.4965484135027509
3.316,2.494271959294565
3.32,2.5020769451512024
3.324,2.5137844239361584
3.328,2.5183373323525302
3.332,2.5167112936323974
3.336,2.5193129555846099
3.34,2.5280935646733269
3.344,2.5339473040658049
3.348,2.5398010434582829
3.352,2.545654782850761
3.356,2.5489068602910265
3.36,2.5547605996835046
3.364,2.5651672474923544
3.368,2.5726470256049652
3.372,2.5785007649974432
3.376,2.5892326205503196
3.38,2.5960619831748772
3.384,2.6090702929359395
3.388,2.6237046414171346
3.392,2.6357373279461171
3.396,2.6464691834989935
3.4,2.6565506235638168
3.404,2.6617539474682417
3.408,2.6692337255808525
3.412,2.6750874649733305
3.416,2.6763882959494367
3.42,2.6757378804613836
3.424,2.6698841410689056
3.428,2.6676076868607197
3.432,2.6581766622839496
3.436,2.6484204299631529
3.44,2.6386641976423562
3.444,2.6237046414171346
3.448,2.5944359444547445
3.452,2.5671184939565137
3.456,2.5381750047381502
3.46,2.514109631680185
3.464,2.4864669734379277
3.468,2.4584991074516438
3.472,2.439311850554077
3.476,2.4285799950012006
3.48,2.4090675303596072
3.484,2.3892298579739872
3.488,2.3758963404688984
3.492,2.3645140694279689
3.496,2.3531317983870395
3.5,2.3463024357624818
3.504,2.3450016047863755
3.508,2.3437007738102693
3.512,2.3410991118580569
3.516,2.3420747350901365
3.52,2.3453268125304021
3.524,2.3495545132027473
3.528,2.3456520202744287
3.532,2.3394730731379241
3.536,2.3362209956976585
3.54,2.3336193337454461
3.544,2.3310176717932336
3.548,2.3267899711208884
3.552,2.3352453724655788
3.556,2.3550830448511988
3.56,2.3580099145474378
3.564,2.3518309674109332
3.568,2.3554082525952253
3.572,2.3602863687556237
3.576,2.356383875827305
3.58,2.3541074216191191
3.584,2.3606115764996503
3.588,2.3638636539399158
3.592,2.3671157313801814
3.596,2.3749207172368187
3.6,2.3778475869330578
3.604,2.3794736256531905
3.608,2.3882542347419076
3.612,2.3859777805337217
3.616,2.3765467559569515
3.62,2.376221548212925
3.624,2.3752459249808453
3.628,2.373294678516686
3.632,2.3742703017487656
3.636,2.3846769495576154
3.64,2.3830509108374827
3.644,2.3797988333972171
3.648,2.3804492488852702
3.652,2.385002157301642
3.656,2.3869534037658013
3.66,2.3869534037658013
3.664,2.3830509108374827
3.668,2.379148417909164
3.672,2.3876038192538545
3.676,2.3941079741343856
3.68,2.3921567276702262
3.684,2.3843517418135889
3.688,2.3814248721173499
3.692,2.376221548212925
3.696,2.3716686397965532
3.7,2.3736198862607125
3.704,2.3830509108374827
3.708,2.3921567276702262
3.712,2.3970348438306246
3.716,2.3947583896224387
3.72,2.399636505782837
3.724,2.4064658684073947
3.728,2.4080919071275275
3.732,2.4025633754790761
3.736,2.4038642064551823
3.74,2.4084171148715541
3.744,2.4113439845677931
3.748,2.4126448155438993
3.752,2.4110187768237665
3.756,2.4113439845677931
3.76,2.4045146219432354
3.764,2.4074414916394744
3.768,2.4181733471923508
3.772,2.4250027098169085
3.776,2.4285799950012006
3.78,2.4217506323766429
3.784,2.4201245936565101
3.788,2.4292304104892537
3.792,2.4285799950012006
3.796,2.4178481394483242
3.8,2.4181733471923508
3.804,2.4269539562810678
3.808,2.4337833189056255
3.812,2.4428891357383691
3.816,2.4471168364107143
3.82,2.4383362273219973
3.824,2.4298808259773068
3.828,2.4191489704244304
3.832,2.4162221007281914
3.836,2.4259783330489881
3.84,2.4373606040899176
3.844,2.4357345653697848
3.848,2.4321572801854927
3.852,2.4295556182332803
3.856,2.4331329034175724
3.86,2.434108526649652
3.864,2.4318320724414662
3.868,2.4337833189056255
3.872,2.4363849808578379
3.876,2.4383362273219973
3.88,2.4526453680591658
3.884,2.4653284700762015
3.888,2.4604503539158031
3.892,2.4601251461717766
3.896,2.4591495229396969
3.9,2.4620763926359359
3.904,2.4715074172127061
3.908,2.4770359488611575
3.912,2.4750847023969982
3.916,2.4669545087963343
3.92,2.4711822094686795
3.924,2.482564480509609
3.928,2.4757351178850513
3.932,2.4591495229396969
3.936,2.4448403822025284
3.94,2.4425639279943425
3.944,2.4503689138509799
3.948,2.4575234842195641
3.952,2.4666293010523077
3.956,2.4689057552604936
3.96,2.4620763926359359
3.964,2.4578486919635907
3.968,2.468580547516467
3.972,2.485491350205848
3.976,2.4988248677109368
3.98,2.5011013219191227
3.984,2.5040281916153617
3.988,2.5102071387518663
3.992,2.5163860858883709
3.996,2.5157356704003178
4,2.5128088007040787
4.004,2.5092315155197866
4.008,2.4998004909430165
4.012,2.4945971670385916
4.016,2.5053290225914679
4.02,2.5066298535675742
4.024,2.5007761141750962
4.028,2.5030525683832821
4.032,2.5027273606392555
4.036,2.4981744522228837
4.04,2.5004509064310696
4.044,2.5014265296631493
4.048,2.4955727902706712
4.052,2.4916702973423526
4.056,2.4945971670385916
4.06,2.4958979980146978
4.064,2.491345089598326
4.068,2.482564480509609
4.072,2.4812636495335028
4.076,2.4809384417894762
4.08,2.4721578327007592
4.084,2.4802880263014231
4.088,2.5209389943047427
4.092,2.5921594902465586
4.096,2.6809412043658085
4.1,2.7843572669662535
4.104,2.9085866251843981
4.108,3.0318403601704631
4.112,3.1131422961771023
4.116,3.1235489439859521
4.12,2.9515140473959036
4.124,2.623379433673108
4.128,2.3134564536157995
4.132,2.1420719725138042
4.136,2.0900387334695552
4.14,2.1075999516469892
4.144,2.1794708630768582
4.148,2.2604475913394708
4.152,2.327765594352968
4.156,2.393782766390359
4.16,2.4331329034175724
4.164,2.4484176673868205
4.168,2.4571982764755376
4.172,2.4620763926359359
4.176,2.4653284700762015
4.18,2.468580547516467
4.184,2.4695561707485467
4.188,2.4789871953253169
4.192,2.491345089598326
4.196,2.5072802690556273
4.2,2.4923207128304057
4.204,2.4802880263014231
4.208,2.4815888572775293
4.212,2.494271959294565
4.216,2.4958979980146978
4.22,2.4923207128304057
4.224,2.4988248677109368
4.228,2.5043533993593883
4.232,2.5059794380795211
4.236,2.514109631680185
4.24,2.5189877478405833
4.244,2.5206137865607161
4.248,2.5202885788166896
4.252,2.5225650330248754
4.256,2.5306952266255394
4.26,2.5365489660180174
4.264,2.5388254202262033
4.268,2.5398010434582829
4.272,2.5459799905947875
4.276,2.5524841454753187
4.28,2.5547605996835046
4.284,2.5570370538916904
4.288,2.5648420397483278
4.292,2.5778503495093901
4.296,2.5824032579257619
4.3,2.5840292966458946
4.304,2.5902082437823992
4.308,2.6090702929359395
4.312,2.6207777717208955
4.316,2.6285827575775329
4.32,2.646143975754967
4.324,2.6650060249085072
4.328,2.6783395424135961
4.332,2.6858193205262069
4.336,2.6871201515023131
4.34,2.6900470211985521
4.344,2.6965511760790832
4.348,2.7066326161439065
4.352,2.7050065774237737
4.356,2.6975267993111629
4.36,2.6965511760790832
4.364,2.6871201515023131
4.368,2.6728110107651446
4.372,2.657851454539923
4.376,2.6370381589222234
4.38,2.6090702929359395
4.384,2.5768747262773104
4.388,2.5492320680350531
4.392,2.5245162794890348
4.396,2.5017517374071758
4.4,2.4682553397724405
4.404,2.4373606040899176
4.408,2.4093927381036337
4.412,2.3817500798613764
4.416,2.3521561751549598
4.42,2.335895787953632
4.424,2.330692464049207
4.428,2.3170337388000917
4.432,2.3118304148956668
4.436,2.3163833233120386
4.44,2.3186597775202245
4.444,2.3147572845919058
4.448,2.2994725206226576
4.452,2.2884154573257547
4.456,2.2910171192779671
4.46,2.2968708586704452
4.464,2.3082531297113746
4.468,2.3085783374554012
4.472,2.3082531297113746
4.476,2.3098791684315074
4.48,2.3147572845919058
4.484,2.3235378936806228
4.488,2.3284160098410212
4.492,2.3319932950253133
4.496,2.3326437105133664
4.5,2.3329689182573929
4.504,2.3300420485611539
4.508,2.3316680872812867
4.512,2.3362209956976585
4.516,2.3469528512505349
4.52,2.3596359532675706
4.524,2.3677661468682345
4.528,2.3658149004040752
4.532,2.3638636539399158
4.536,2.3684165623562876
4.54,2.370367808820447
4.544,2.3749207172368187
4.548,2.3745955094927922
4.552,2.3771971714450046
4.556,2.3824004953494295
4.56,2.3713434320525266
4.564,2.3619124074757565
4.568,2.3654896926600486
4.572,2.376221548212925
4.576,2.3804492488852702
4.58,2.3817500798613764
4.584,2.3758963404688984
4.588,2.3749207172368187
4.592,2.3810996643733233
4.596,2.387929026997881
4.6,2.3876038192538545
4.604,2.3869534037658013
4.608,2.3784980024211109
4.612,2.3693921855883673
4.616,2.362237615219783
4.62,2.3609367842436768
4.624,2.3648392771719955
4.628,2.3654896926600486
4.632,2.3632132384518627
4.636,2.3589855377795175
4.64,2.3615871997317299
4.644,2.370367808820447
4.648,2.3739450940047391
4.652,2.3758963404688984
4.656,2.376221548212925
4.66,2.3784980024211109
4.664,2.3768719637009781
4.668,2.3752459249808453
4.672,2.3716686397965532
4.676,2.3697173933323938
4.68,2.3697173933323938
4.684,2.365164484916022
4.688,2.3684165623562876
4.692,2.3726442630286328
4.696,2.3710182243085001
4.7,2.3726442630286328
4.704,2.3752459249808453
4.708,2.3758963404688984
4.712,2.3752459249808453
4.716,2.3784980024211109
4.72,2.3876038192538545
4.724,2.3989860902947839
4.728,2.4022381677350495
4.732,2.4002869212708902
4.736,2.3986608825507574
4.74,2.3993112980388105
4.744,2.4002869212708902
4.748,2.3983356748067308
4.752,2.3902054812060669
4.756,2.3944331818784121
4.76,2.3970348438306246
4.764,2.3986608825507574
4.768,2.3957340128545184
4.772,2.3957340128545184
4.776,2.399636505782837
4.78,2.4028885832231026
4.784,2.3986608825507574
4.788,2.407766699383501
4.792,2.4080919071275275
4.796,2.4051650374312885
4.8,2.4022381677350495
4.804,2.399636505782837
4.808,2.3986608825507574
4.812,2.3999617135268636
4.816,2.4028885832231026
4.82,2.4054902451753151
4.824,2.4093927381036337
4.828,2.413620438775979
4.832,2.4139456465200055
4.836,2.4162221007281914
4.84,2.4149212697520852
4.844,2.4071162838954479
4.848,2.3986608825507574
4.852,2.3973600515746512
4.856,2.3999617135268636
4.86,2.404839829687262
4.864,2.4045146219432354
4.868,2.4028885832231026
4.872,2.4061406606633682
4.876,2.4168725162162445
4.88,2.4220758401206695
4.884,2.4269539562810678
4.888,2.4357345653697848
4.892,2.4458160054346081
4.896,2.4526453680591658
4.9,2.451019329339033
4.904,2.4445151744585019
4.908,2.434108526649652
4.912,2.4279295795131475
4.916,2.4211002168885898
4.92,2.4211002168885898
4.924,2.4272791640250944
4.928,2.4328076956735458
4.932,2.428254787257174
4.936,2.422401047864696
4.94,2.4240270865848288
4.944,2.4240270865848288
4.948,2.4243522943288554
4.952,2.4237018788408022
4.956,2.4256531253049616
4.96,2.4230514633527491
4.964,2.422401047864696
4.968,2.4263035407930147
4.972,2.4276043717691209
4.976,2.4308564492093865
4.98,2.4305312414653599
4.984,2.4263035407930147
4.988,2.4279295795131475
4.992,2.4464664209226612
4.996,2.4939467515505385
5,2.5739478565810714
5.004,2.6783395424135961
5.008,2.8077722245361656
5.012,2.9443594770273194
5.016,3.0484259551158175
5.02,3.0825727682386059
5.024,3.0116774800408166
5.028,2.752486908051651
5.032,2.4207750091445632
5.036,2.1823977327730972
5.04,2.0786564624286257
5.044,2.0711766843160149
5.048,2.118006599455839
5.052,2.1921539650938939
5.056,2.2679273694520816
5.06,2.3332941260014195
5.064,2.396709636086598
5.068,2.4389866428100504
5.072,2.4552470300113782
5.076,2.4565478609874845
5.08,2.4532957835472189
5.084,2.4513445370830595
5.088,2.4497184983629268
5.092,2.4493932906189002
5.096,2.4532957835472189
5.1,2.4604503539158031
5.104,2.4672797165403608
5.108,2.4783367798372637
5.112,2.4819140650215559
5.116,2.4845157269737683
5.12,2.494271959294565
5.124,2.5043533993593883
5.128,2.5121583852160256
5.132,2.5150852549122646
5.136,2.5215894097927958
5.14,2.5306952266255394
5.144,2.5365489660180174
5.148,2.5404514589463361
5.152,2.5518337299872655
5.156,2.5606143390759826
5.16,2.5635412087722216
5.164,2.5560614306596108
5.168,2.5563866384036373
5.172,2.5606143390759826
5.176,2.5667932862124871
5.18,2.5697201559087262
5.184,2.5693949481646996
5.188,2.5762243107892573
5.192,2.5876065818301868
5.196,2.5941107367107179
5.2,2.6025661380554084
5.204,2.6110215394000988
5.208,2.6188265252567362
5.212,2.6328104582498781
5.216,2.6438675215467811
5.22,2.657851454539923
5.224,2.6783395424135961
5.228,2.689396605710499
5.232,2.6975267993111629
5.236,2.7020797077275347
5.24,2.7115107323043048
5.244,2.7189905104169156
5.248,2.7154132252326235
5.252,2.7128115632804111
5.256,2.7128115632804111
5.26,2.7102099013281986
5.264,2.7050065774237737
5.268,2.6994780457753222
5.272,2.6880957747343928
5.276,2.6744370494852774
5.28,2.6601279087481089
5.284,2.6367129511781968
5.288,2.6032165535434615
5.292,2.5716714023728855
5.296,2.5381750047381502
5.3,2.5059794380795211
5.304,2.4763855333731044
5.308,2.4477672518987674
5.312,2.4230514633527491
5.316,2.4035389987111557
5.32,2.3856525727896951
5.324,2.3775223791890312
5.328,2.3723190552846063
5.332,2.3713434320525266
5.336,2.3658149004040752
5.34,2.3645140694279689
5.344,2.3674409391242079
5.348,2.3664653158921283
5.352,2.3547578371071722
5.356,2.353457006131066
5.36,2.3511805519228801
5.364,2.3498797209467739
5.368,2.3528065906430129
5.372,2.3586603300354909
5.376,2.359310745523544
5.38,2.3619124074757565
5.384,2.3583351222914644
5.388,2.3544326293631457
5.392,2.3554082525952253
5.396,2.365164484916022
5.4,2.3680913546122611
5.404,2.3671157313801814
5.408,2.3648392771719955
5.412,2.3664653158921283
5.416,2.3638636539399158
5.42,2.3758963404688984
5.424,2.3863029882777482
5.428,2.3876038192538545
5.432,2.3794736256531905
5.436,2.3778475869330578
5.44,2.3840265340695623
5.444,2.3947583896224387
5.448,2.3957340128545184
5.452,2.3957340128545184
5.456,2.3976852593186777
5.46,2.4006121290149167
5.464,2.4045146219432354
5.468,2.4113439845677931
5.472,2.4142708542640321
5.476,2.4217506323766429
5.48,2.4142708542640321
5.484,2.4054902451753151
5.488,2.4067910761514213
5.492,2.4132952310319524
5.496,2.41069356907974
5.5,2.4041894141992088
5.504,2.4061406606633682
5.508,2.4064658684073947
5.512,2.4028885832231026
5.516,2.4022381677350495
5.52,2.4022381677350495
5.524,2.3999617135268636
5.528,2.3950835973664653
5.532,2.3941079741343856
5.536,2.3960592205985449
5.54,2.3915063121821731
5.544,2.3918315199261997
5.548,2.3950835973664653
5.552,2.3928071431582794
5.556,2.3918315199261997
5.56,2.3911811044381466
5.564,2.4006121290149167
5.568,2.4103683613357134
5.572,2.4171977239602711
5.576,2.4220758401206695
5.58,2.4217506323766429
5.584,2.4155716852401383
5.588,2.4155716852401383
5.592,2.4237018788408022
5.596,2.4289052027452271
5.6,2.4263035407930147
5.604,2.428254787257174
5.608,2.4295556182332803
5.612,2.4246775020728819
5.616,2.4237018788408022
5.62,2.4263035407930147
5.624,2.4305312414653599
5.628,2.434108526649652
5.632,2.4334581111615989
5.636,2.4256531253049616
5.64,2.4243522943288554
5.644,2.4259783330489881
5.648,2.4318320724414662
5.652,2.4344337343936786
5.656,2.439311850554077
5.66,2.4399622660421301
5.664,2.4370353963458911
5.668,2.4337833189056255
5.672,2.4386614350660238
5.676,2.4406126815301832
5.68,2.4370353963458911
5.684,2.431181656953413
5.688,2.4321572801854927
5.692,2.4438647589704487
5.696,2.451019329339033
5.7,2.4490680828748737
5.704,2.4428891357383691
5.708,2.4357345653697848
5.712,2.4334581111615989
5.716,2.4376858118339442
5.72,2.4412630970182363
5.724,2.4454907976905815
5.728,2.4474420441547409
5.732,2.4506941215950064
5.736,2.4526453680591658
5.74,2.4523201603151392
5.744,2.4584991074516438
5.748,2.4594747306837235
5.752,2.4633772236120421
5.756,2.4633772236120421
5.76,2.4689057552604936
5.764,2.4741090791649185
5.768,2.4718326249567326
5.772,2.4724830404447857
5.776,2.4754099101410247
5.78,2.4773611566051841
5.784,2.4806132340454496
5.788,2.4838653114857152
5.792,2.4864669734379277
5.796,2.4906946741102729
5.8,2.4897190508781932
5.804,2.4871173889259808
5.808,2.4897190508781932
5.812,2.4897190508781932
5.816,2.4916702973423526
5.82,2.4981744522228837
5.824,2.4981744522228837
5.828,2.4984996599669103
5.832,2.4984996599669103
5.836,2.5024021528952289
5.84,2.4962232057587244
5.844,2.4877678044140339
5.848,2.4757351178850513
5.852,2.4747594946529716
5.856,2.4711822094686795
5.86,2.4741090791649185
5.864,2.4747594946529716
5.868,2.4754099101410247
5.872,2.4741090791649185
5.876,2.4780115720932372
5.88,2.4867921811819542
5.884,2.4851661424618214
5.888,2.4812636495335028
5.892,2.47963761081337
5.896,2.468580547516467
5.9,2.4542714067792986
5.904,2.4493932906189002
5.908,2.4542714067792986
5.912,2.4637024313560687
5.916,2.4666293010523077
5.92,2.4650032623321749
5.924,2.4578486919635907
5.928,2.4526453680591658
5.932,2.4461412131786346
5.936,2.4354093576257583
5.94,2.4321572801854927
5.944,2.4380110195779707
5.948,2.4370353963458911
5.952,2.4415883047622629
5.956,2.4490680828748737
5.96,2.4471168364107143
5.964,2.4474420441547409
5.968,2.4448403822025284
5.972,2.4497184983629268
5.976,2.4672797165403608
5.98,2.5085811000317335
5.984,2.5827284656697884
5.988,2.6763882959494367
5.992,2.7911866295908112
5.996,2.9115134948806372
6,3.0120026877848431
6.004,3.065661965549225
6.008,3.0448486699315254
6.012,2.830211558873998
6.016,2.5095567232638132
6.02,2.2575207216432318
6.024,2.1410963492817245
6.028,2.1147545220155735
6.032,2.1423971802578308
6.036,2.2019101974146906
6.04,2.2747567320766393
6.044,2.3303672563051805
6.048,2.3814248721173499
6.052,2.4152464774961118
6.056,2.4298808259773068
6.06,2.4334581111615989
6.064,2.4315068646974396
6.068,2.4328076956735458
6.072,2.442238720250316
6.076,2.4503689138509799
6.08,2.453946199035272
6.084,2.4562226532434579
6.088,2.4542714067792986
6.092,2.4604503539158031
6.096,2.456873068731511
6.1,2.4497184983629268
6.104,2.448092459642794
6.108,2.4526453680591658
6.112,2.4591495229396969
6.116,2.4607755616598297
6.12,2.462726808123989
6.124,2.4607755616598297
6.128,2.4581738997076172
6.132,2.4571982764755376
6.136,2.45979993842775
6.14,2.4692309630045202
6.144,2.4819140650215559
6.148,2.4890686353901401
6.152,2.4968736212467775
6.156,2.5030525683832821
6.16,2.511182761983946
6.164,2.5160608781443443
6.168,2.5215894097927958
6.172,2.531670849857619
6.176,2.5433783286425751
6.18,2.5489068602910265
6.184,2.5557362229155842
6.188,2.5593135080998763
6.192,2.5684193249326199
6.196,2.5775251417653635
6.2,2.5833788811578415
6.204,2.5986636451270897
6.208,2.6155744478164706
6.212,2.623379433673108
6.216,2.6298835885536391
6.22,2.6357373279461171
6.224,2.6425666905706748
6.228,2.649070845451206
6.232,2.6510220919153653
6.236,2.6516725074034184
6.24,2.6526481306354981
6.244,2.6542741693556309
6.248,2.6565506235638168
6.252,2.6536237538675778
6.256,2.6458187680109404
6.26,2.6415910673385952
6.264,2.6256558878812939
6.268,2.6025661380554084
6.272,2.5798015959735494
6.276,2.5580126771237701
6.28,2.52874398016138
6.284,2.5017517374071758
6.288,2.4793124030693434
6.292,2.4555722377554048
6.296,2.4324824879295193
6.3,2.4074414916394744
6.304,2.3869534037658013
6.308,2.3726442630286328
6.312,2.3609367842436768
6.316,2.3502049286908004
6.32,2.3489040977146942
6.324,2.350530136434827
6.328,2.3524813828989863
6.332,2.3440259815542959
6.336,2.335895787953632
6.34,2.3342697492334992
6.344,2.3401234886259772
6.348,2.3502049286908004
6.352,2.3576847068034112
6.356,2.3599611610115971
6.36,2.3576847068034112
6.364,2.3628880307078362
6.368,2.3693921855883673
6.372,2.373294678516686
6.376,2.3775223791890312
6.38,2.3843517418135889
6.384,2.3856525727896951
6.388,2.3872786115098279
6.392,2.3840265340695623
6.396,2.387929026997881
6.4,2.3924819354142528
6.404,2.4061406606633682
6.408,2.4149212697520852
6.412,2.416547308472218
6.416,2.4142708542640321
6.42,2.4084171148715541
6.424,2.404839829687262
6.428,2.4038642064551823
6.432,2.3993112980388105
6.436,2.3980104670627043
6.44,2.4012625445029698
6.444,2.4038642064551823
6.448,2.4071162838954479
6.452,2.4116691923118196
6.456,2.416547308472218
6.46,2.4155716852401383
6.464,2.4100431535916869
6.468,2.4090675303596072
6.472,2.4132952310319524
6.476,2.4171977239602711
6.48,2.4149212697520852
6.484,2.4129700232879259
6.488,2.4100431535916869
6.492,2.4090675303596072
6.496,2.407766699383501
6.5,2.4100431535916869
6.504,2.4155716852401383
6.508,2.4233766710967757
6.512,2.4220758401206695
6.516,2.4184985549363773
6.52,2.4149212697520852
6.524,2.4142708542640321
6.528,2.413620438775979
6.532,2.41069356907974
6.536,2.4061406606633682
6.54,2.4035389987111557
6.544,2.4032137909671292
6.548,2.4041894141992088
6.552,2.4054902451753151
6.556,2.4116691923118196
6.56,2.4191489704244304
6.564,2.4237018788408022
6.568,2.4337833189056255
6.572,2.4357345653697848
6.576,2.4360597731138114
6.58,2.4344337343936786
6.584,2.4315068646974396
6.588,2.4357345653697848
6.592,2.4402874737861566
6.596,2.4477672518987674
6.6,2.4477672518987674
6.604,2.4477672518987674
6.608,2.4513445370830595
6.612,2.4526453680591658
6.616,2.4536209912912454
6.62,2.4578486919635907
6.624,2.4620763926359359
6.628,2.4620763926359359
6.632,2.4581738997076172
6.636,2.456873068731511
6.64,2.4578486919635907
6.644,2.4624016003799625
6.648,2.4558974454994313
6.652,2.4493932906189002
6.656,2.4435395512264222
6.66,2.4396370582981035
6.664,2.4315068646974396
6.668,2.4269539562810678
6.672,2.4279295795131475
6.676,2.4318320724414662
6.68,2.4318320724414662
6.684,2.4344337343936786
6.688,2.4360597731138114
6.692,2.4363849808578379
6.696,2.4344337343936786
6.7,2.4292304104892537
6.704,2.4289052027452271
6.708,2.4243522943288554
6.712,2.4259783330489881
6.716,2.4259783330489881
6.72,2.4243522943288554
6.724,2.4204498014005367
6.728,2.4158968929841649
6.732,2.4071162838954479
6.736,2.4022381677350495
6.74,2.4006121290149167
6.744,2.4051650374312885
6.748,2.4123196077998728
6.752,2.4110187768237665
6.756,2.4123196077998728
6.76,2.4119944000558462
6.764,2.4045146219432354
6.768,2.4071162838954479
6.772,2.4087423226155806
6.776,2.4067910761514213
6.78,2.4038642064551823
6.784,2.3980104670627043
6.788,2.3960592205985449
6.792,2.399636505782837
6.796,2.4064658684073947
6.8,2.4051650374312885
6.804,2.4025633754790761
6.808,2.4028885832231026
6.812,2.4041894141992088
6.816,2.4022381677350495
6.82,2.4045146219432354
6.824,2.4019129599910229
6.828,2.4058154529193416
6.832,2.4116691923118196
6.836,2.4129700232879259
6.84,2.4090675303596072
6.844,2.399636505782837
6.848,2.3970348438306246
6.852,2.3999617135268636
6.856,2.4022381677350495
6.86,2.4025633754790761
6.864,2.4009373367589433
6.868,2.3954088051104918
6.872,2.3895550657180138
6.876,2.3895550657180138
6.88,2.3866281960217748
6.884,2.3863029882777482
6.888,2.3957340128545184
6.892,2.4103683613357134
6.896,2.425327917560935
6.9,2.4295556182332803
6.904,2.4363849808578379
6.908,2.4490680828748737
6.912,2.4549218222673517
6.916,2.4490680828748737
6.92,2.4399622660421301
6.924,2.4350841498817317
6.928,2.4334581111615989
6.932,2.4279295795131475
6.936,2.4214254246326163
6.94,2.4276043717691209
6.944,2.4263035407930147
6.948,2.422401047864696
6.952,2.4220758401206695
6.956,2.4243522943288554
6.96,2.428254787257174
6.964,2.4315068646974396
6.968,2.4298808259773068
6.972,2.4276043717691209
6.976,2.4324824879295193
6.98,2.4334581111615989
6.984,2.4305312414653599
6.988,2.4250027098169085
6.992,2.425327917560935
6.996,2.4272791640250944
7,2.4276043717691209
7.004,2.4289052027452271
7.008,2.4526453680591658
7.012,2.497198828990804
7.016,2.5654924552363809
7.02,2.6484204299631529
7.024,2.7505356615874916
7.028,2.8672852416930255
7.032,2.9615954874607269
7.036,3.0194824658974539
7.04,3.005498532904312
7.044,2.8139511716726702
7.048,2.5147600471682381
7.052,2.2773583940288518
7.056,2.1697146307560615
7.06,2.1521534125786275
7.064,2.175243162404513
7.068,2.2256503627286293
7.072,2.296220443182392
7.076,2.3654896926600486
7.08,2.4461412131786346
7.084,2.5264675259531941
7.088,2.5853301276220009
7.092,2.6308592117857188
7.096,2.6854941127821803
7.1,2.7632187636045273
7.104,2.7921622528228909
7.108,2.775901865621563
7.112,2.7398038060346153
7.116,2.6978520070551895
7.12,2.6653312326525338
7.124,2.6415910673385952
7.128,2.620452563976869
7.132,2.6028913457994349
7.136,2.5876065818301868
7.14,2.5778503495093901
7.144,2.5619151700520888
7.148,2.5518337299872655
7.152,2.5450043673627079
7.156,2.542727913154522
7.16,2.5430531208985485
7.164,2.5391506279702298
7.168,2.534597719553858
7.172,2.5362237582739908
7.176,2.531670849857619
7.18,2.5261423182091676
7.184,2.522890240768902
7.188,2.5277683569293004
7.192,2.5339473040658049
7.196,2.5381750047381502
7.2,2.5424027054104954
7.204,2.5469556138268672
7.208,2.5489068602910265
7.212,2.5472808215708937
7.216,2.5433783286425751
7.22,2.548581652547
7.224,2.5560614306596108
7.228,2.5648420397483278
7.232,2.5762243107892573
7.236,2.5882569973182399
7.24,2.6038669690315146
7.244,2.6103711239120457
7.248,2.6132979936082847
7.252,2.6132979936082847
7.256,2.6181761097686831
7.26,2.6276071343454532
7.264,2.632160042761825
7.268,2.6344364969700109
7.272,2.6367129511781968
7.276,2.6341112892259844
7.28,2.6243550569051877
7.284,2.6129727858642582
7.288,2.6100459161680192
7.292,2.6038669690315146
7.296,2.5902082437823992
7.3,2.5706957791408058
7.304,2.5453295751067344
7.308,2.5267927336972207
7.312,2.5059794380795211
7.316,2.4776863643492106
7.32,2.4380110195779707
7.324,2.4045146219432354
7.328,2.385002157301642
7.332,2.3700426010764204
7.336,2.3524813828989863
7.34,2.3401234886259772
7.344,2.3254891401447821
7.348,2.307277506479295
7.352,2.3037002212950028
7.356,2.2984968973905779
7.36,2.2936187812301796
7.364,2.2906919115339406
7.368,2.2926431579980999
7.372,2.2991473128786311
7.376,2.2997977283666842
7.38,2.2949196122062858
7.384,2.2910171192779671
7.388,2.2890658728138078
7.392,2.2854885876295157
7.396,2.2835373411653563
7.4,2.2822365101892501
7.404,2.278659225004958
7.408,2.2799600559810642
7.412,2.2851633798854891
7.416,2.2861390031175688
7.42,2.284512964397436
7.424,2.2884154573257547
7.428,2.2929683657421265
7.432,2.2991473128786311
7.436,2.3059766755031887
7.44,2.3144320768478792
7.444,2.3186597775202245
7.448,2.316058115568012
7.452,2.3108547916635871
7.456,2.3173589465441182
7.46,2.3271151788649149
7.464,2.3342697492334992
7.468,2.3404486963700037
7.472,2.3371966189297382
7.476,2.3329689182573929
7.48,2.3274403866089415
7.484,2.3232126859365962
7.488,2.3342697492334992
7.492,2.3397982808819506
7.496,2.3407739041140303
7.5,2.3316680872812867
7.504,2.3238631014246494
7.508,2.3300420485611539
7.512,2.344676397042349
7.516,2.3427251505781896
7.52,2.3423999428341631
7.524,2.3414243196020834
7.528,2.3394730731379241
7.532,2.3378470344177913
7.536,2.3342697492334992
7.54,2.3397982808819506
7.544,2.347603266738588
7.548,2.3567090835713316
7.552,2.3596359532675706
7.556,2.3580099145474378
7.56,2.356383875827305
7.564,2.3557334603392519
7.568,2.3580099145474378
7.572,2.3654896926600486
7.576,2.3654896926600486
7.58,2.3602863687556237
7.584,2.3511805519228801
7.588,2.3544326293631457
7.592,2.3628880307078362
7.596,2.3612619919877034
7.6,2.3609367842436768
7.604,2.3547578371071722
7.608,2.3544326293631457
7.612,2.3615871997317299
7.616,2.3645140694279689
7.62,2.3638636539399158
7.624,2.3687417701003142
7.628,2.3697173933323938
7.632,2.3648392771719955
7.636,2.3573594990593847
7.64,2.3638636539399158
7.644,2.373294678516686
7.648,2.3749207172368187
7.652,2.3765467559569515
7.656,2.3771971714450046
7.66,2.3804492488852702
7.664,2.3771971714450046
7.668,2.3784980024211109
7.672,2.3827257030934561
7.676,2.3928071431582794
7.68,2.3947583896224387
7.684,2.3999617135268636
7.688,2.3950835973664653
7.692,2.3902054812060669
7.696,2.385002157301642
7.7,2.3846769495576154
7.704,2.3950835973664653
7.708,2.4074414916394744
7.712,2.4071162838954479
7.716,2.4022381677350495
7.72,2.4074414916394744
7.724,2.4064658684073947
7.728,2.4019129599910229
7.732,2.4028885832231026
7.736,2.4097179458476603
7.74,2.4178481394483242
7.744,2.4246775020728819
7.748,2.4276043717691209
7.752,2.4272791640250944
7.756,2.4380110195779707
7.76,2.4409378892742097
7.764,2.4370353963458911
7.768,2.4328076956735458
7.772,2.4331329034175724
7.776,2.4331329034175724
7.78,2.4321572801854927
7.784,2.4324824879295193
7.788,2.4360597731138114
7.792,2.4370353963458911
7.796,2.4347589421377052
7.8,2.4360597731138114
7.804,2.4344337343936786
7.808,2.4373606040899176
7.812,2.4328076956735458
7.816,2.4276043717691209
7.82,2.4315068646974396
7.824,2.4331329034175724
7.828,2.4321572801854927
7.832,2.4337833189056255
7.836,2.4380110195779707
7.84,2.4386614350660238
7.844,2.4357345653697848
7.848,2.4318320724414662
7.852,2.4318320724414662
7.856,2.4266287485370412
7.86,2.4263035407930147
7.864,2.4344337343936786
7.868,2.4490680828748737
7.872,2.4650032623321749
7.876,2.4672797165403608
7.88,2.4731334559328388
7.884,2.4799628185573965
7.888,2.4897190508781932
7.892,2.4910198818542995
7.896,2.4851661424618214
7.9,2.4773611566051841
7.904,2.4682553397724405
7.908,2.4669545087963343
7.912,2.4653284700762015
7.916,2.4581738997076172
7.92,2.4584991074516438
7.924,2.4607755616598297
7.928,2.4620763926359359
7.932,2.462726808123989
7.936,2.4575234842195641
7.94,2.4575234842195641
7.944,2.4711822094686795
7.948,2.4802880263014231
7.952,2.4786619875812903
7.956,2.4715074172127061
7.96,2.4741090791649185
7.964,2.4806132340454496
7.968,2.4786619875812903
7.972,2.4741090791649185
7.976,2.4721578327007592
7.98,2.4705317939806264
7.984,2.482564480509609
7.988,2.5297196033934597
7.992,2.6106963316560723
7.996,2.6972015915671363
8,2.8146015871607233
8.004,2.9508636319078505
8.008,3.0783450675662607
8.012,3.1411101621633861
8.016,3.1131422961771023
8.02,2.9017572625598405
8.024,2.5677689094445668
8.028,2.2887406650697812
8.032,2.1502021661144681
8.036,2.1228847156162374
8.04,2.1645113068516366
8.044,2.235406595049426
8.048,2.3040254290390294
8.052,2.3680913546122611
8.056,2.4279295795131475
8.06,2.4676049242843874
8.064,2.4890686353901401
8.068,2.5043533993593883
8.072,2.5072802690556273
8.076,2.5154104626562912
8.08,2.514109631680185
8.084,2.5102071387518663
8.088,2.5115079697279725
8.092,2.5150852549122646
8.096,2.5131340084481053
8.1,2.5108575542399194
8.104,2.5167112936323974
8.108,2.5254919027211145
8.112,2.5267927336972207
8.116,2.5319960576016456
8.12,2.5375245892500971
8.124,2.5388254202262033
8.128,2.5417522899224423
8.132,2.5446791596186813
8.136,2.5450043673627079
8.14,2.5547605996835046
8.144,2.5619151700520888
8.148,2.5635412087722216
8.152,2.5732974410930183
8.156,2.5768747262773104
8.16,2.5716714023728855
8.164,2.5703705713967793
8.168,2.5739478565810714
8.172,2.5876065818301868
8.176,2.6041921767755412
8.18,2.6061434232397005
8.184,2.6077694619598333
8.188,2.6201273562328424
8.192,2.6360625356901437
8.196,2.6503716764273122
8.2,2.6663068558846135
8.204,2.677689126925543
8.208,2.6848436972941272
8.212,2.6919982676627114
8.216,2.6985024225432426
8.22,2.7124863555363845
8.224,2.732649235666031
8.228,2.741429844754748
8.232,2.7394785982905887
8.236,2.7424054679868277
8.24,2.7528121157956775
8.244,2.7648448023246601
8.248,2.7765522811096162
8.252,2.772974995925324
8.256,2.7596414784202352
8.26,2.7508608693315182
8.264,2.7453323376830667
8.268,2.738502975058509
8.272,2.7261450807854999
8.276,2.7108603168162517
8.28,2.68646973601426
8.284,2.6562254158197902
8.288,2.6224038104410283
8.292,2.5872813740861602
8.296,2.5450043673627079
8.3,2.5137844239361584
8.304,2.4945971670385916
8.308,2.4650032623321749
8.312,2.4409378892742097
8.316,2.4237018788408022
8.32,2.4084171148715541
8.324,2.4012625445029698
8.328,2.3941079741343856
8.332,2.382075287605403
8.336,2.370367808820447
8.34,2.3677661468682345
8.344,2.3723190552846063
8.348,2.3755711327248719
8.352,2.3713434320525266
8.356,2.370367808820447
8.36,2.3671157313801814
8.364,2.3638636539399158
8.368,2.3541074216191191
8.372,2.3570342913153581
8.376,2.3625628229638096
8.38,2.3710182243085001
8.384,2.3781727946770843
8.388,2.3742703017487656
8.392,2.3749207172368187
8.396,2.3788232101651374
8.4,2.3784980024211109
8.404,2.3745955094927922
8.408,2.379148417909164
8.412,2.3905306889500935
8.416,2.3921567276702262
8.42,2.3957340128545184
8.424,2.4009373367589433
8.428,2.4032137909671292
8.432,2.4084171148715541
8.436,2.4025633754790761
8.44,2.4051650374312885
8.444,2.4116691923118196
8.448,2.4152464774961118
8.452,2.4116691923118196
8.456,2.4113439845677931
8.46,2.4191489704244304
8.464,2.4175229317042977
8.468,2.4058154529193416
8.472,2.407766699383501
8.476,2.4155716852401383
8.48,2.4181733471923508
8.484,2.4152464774961118
8.488,2.416547308472218
8.492,2.4149212697520852
8.496,2.41069356907974
8.5,2.4061406606633682
8.504,2.4032137909671292
8.508,2.4006121290149167
8.512,2.4022381677350495
8.516,2.3993112980388105
8.52,2.3986608825507574
8.524,2.4041894141992088
8.528,2.4035389987111557
8.532,2.4002869212708902
8.536,2.3989860902947839
8.54,2.3976852593186777
8.544,2.399636505782837
8.548,2.3986608825507574
8.552,2.3928071431582794
8.556,2.3885794424859341
8.56,2.3892298579739872
8.564,2.3898802734620403
8.568,2.3941079741343856
8.572,2.3954088051104918
8.576,2.3947583896224387
8.58,2.3931323509023059
8.584,2.3950835973664653
8.588,2.4061406606633682
8.592,2.4084171148715541
8.596,2.4054902451753151
8.6,2.4012625445029698
8.604,2.4022381677350495
8.608,2.4090675303596072
8.612,2.4113439845677931
8.616,2.4132952310319524
8.62,2.4123196077998728
8.624,2.4074414916394744
8.628,2.4019129599910229
8.632,2.3947583896224387
8.636,2.39085589669412
8.64,2.3924819354142528
8.644,2.3983356748067308
8.648,2.404839829687262
8.652,2.413620438775979
8.656,2.4181733471923508
8.66,2.4168725162162445
8.664,2.407766699383501
8.668,2.3980104670627043
8.672,2.3947583896224387
8.676,2.3983356748067308
8.68,2.404839829687262
8.684,2.407766699383501
8.688,2.4080919071275275
8.692,2.4139456465200055
8.696,2.4149212697520852
8.7,2.4123196077998728
8.704,2.4162221007281914
8.708,2.4240270865848288
8.712,2.4305312414653599
8.716,2.4292304104892537
8.72,2.4204498014005367
8.724,2.4093927381036337
8.728,2.4090675303596072
8.732,2.4103683613357134
8.736,2.3993112980388105
8.74,2.3976852593186777
8.744,2.3989860902947839
8.748,2.399636505782837
8.752,2.4002869212708902
8.756,2.4041894141992088
8.76,2.4071162838954479
8.764,2.41069356907974
8.768,2.4123196077998728
8.772,2.4123196077998728
8.776,2.4097179458476603
8.78,2.4110187768237665
8.784,2.4061406606633682
8.788,2.4019129599910229
8.792,2.4142708542640321
8.796,2.4354093576257583
8.8,2.4484176673868205
8.804,2.4549218222673517
8.808,2.4663040933082812
8.812,2.4705317939806264
8.816,2.4692309630045202
8.82,2.4643528468441218
8.824,2.4565478609874845
8.828,2.442238720250316
8.832,2.4269539562810678
8.836,2.4289052027452271
8.84,2.4350841498817317
8.844,2.4376858118339442
8.848,2.4376858118339442
8.852,2.4409378892742097
8.856,2.4542714067792986
8.86,2.4643528468441218
8.864,2.465653677820228
8.868,2.4630520158680156
8.872,2.465653677820228
8.876,2.4728082481888123
8.88,2.4786619875812903
8.884,2.4734586636768654
8.888,2.4786619875812903
8.892,2.4835401037416887
8.896,2.4874425966700073
8.9,2.4861417656939011
8.904,2.4903694663662463
8.908,2.5024021528952289
8.912,2.5424027054104954
8.916,2.6220786026970018
8.92,2.718014887184836
8.924,2.8347644672903698
8.928,2.9635467339248862
8.932,3.0754181978700217
8.936,3.1456630705797579
8.94,3.1544436796684749
8.944,2.9872868992388248
8.948,2.6627295707003213
8.952,2.3589855377795175
8.956,2.1882514721655753
8.96,2.1401207260496449
8.964,2.1599583984352648
8.968,2.2178453768719919
8.972,2.2936187812301796
8.976,2.3602863687556237
8.98,2.4201245936565101
8.984,2.4637024313560687
8.988,2.4923207128304057
8.992,2.5079306845436804
8.996,2.5069550613116007
9,2.5085811000317335
9.004,2.5095567232638132
9.008,2.5124835929600522
9.012,2.5180121246085037
9.016,2.5137844239361584
9.02,2.5163860858883709
9.024,2.5332968885777518
9.028,2.5472808215708937
9.032,2.5524841454753187
9.036,2.5489068602910265
9.04,2.5476060293149203
9.044,2.5534597687073983
9.048,2.5567118461476639
9.052,2.5654924552363809
9.056,2.5697201559087262
9.06,2.5723218178609386
9.064,2.5713461946288589
9.068,2.5758991030452307
9.072,2.5814276346936822
9.076,2.5807772192056291
9.08,2.5778503495093901
9.084,2.5820780501817353
9.088,2.5908586592704523
9.092,2.5989888528711163
9.096,2.5996392683591694
9.1,2.594761152198771
9.104,2.5973628141509835
9.108,2.6041921767755412
9.112,2.6132979936082847
9.116,2.6227290181850549
9.12,2.6308592117857188
9.124,2.6432171060587279
9.128,2.6552497925877105
9.132,2.6689085178368259
9.136,2.6793151656456757
9.14,2.6900470211985521
9.144,2.7046813696797471
9.148,2.7170392639527563
9.152,2.7254946652974468
9.156,2.7303727814578451
9.16,2.73557610536227
9.164,2.73557610536227
9.168,2.7316736124339513
9.172,2.7271207040175796
9.176,2.7313484046899248
9.18,2.7372021440824028
9.184,2.7339500666421372
9.188,2.7245190420653671
9.192,2.7157384329766501
9.196,2.7027301232155878
9.2,2.6887461902224459
9.204,2.6601279087481089
9.208,2.629233173065586
9.212,2.6028913457994349
9.216,2.5667932862124871
9.22,2.5310204343695659
9.224,2.5007761141750962
9.228,2.4702065862365998
9.232,2.4380110195779707
9.236,2.4142708542640321
9.24,2.3999617135268636
9.244,2.3934575586463325
9.248,2.3837013263255358
9.252,2.3755711327248719
9.256,2.3684165623562876
9.26,2.3661401081481017
9.264,2.3619124074757565
9.268,2.3570342913153581
9.272,2.3524813828989863
9.276,2.3518309674109332
9.28,2.3479284744826145
9.284,2.3459772280184552
9.288,2.3456520202744287
9.292,2.3420747350901365
9.296,2.3410991118580569
9.3,2.34174952734611
9.304,2.34174952734611
9.308,2.3437007738102693
9.312,2.3472780589945614
9.316,2.3466276435065083
9.32,2.3498797209467739
9.324,2.3567090835713316
9.328,2.3537822138750926
9.332,2.3550830448511988
9.336,2.353457006131066
9.34,2.3537822138750926
9.344,2.3612619919877034
9.348,2.3739450940047391
9.352,2.382075287605403
9.356,2.3869534037658013
9.36,2.3889046502299607
9.364,2.3902054812060669
9.368,2.39085589669412
9.372,2.3934575586463325
9.376,2.3911811044381466
9.38,2.3869534037658013
9.384,2.3934575586463325
9.388,2.3915063121821731
9.392,2.3941079741343856
9.396,2.3993112980388105
9.4,2.3970348438306246
9.404,2.3947583896224387
9.408,2.3934575586463325
9.412,2.393782766390359
9.416,2.3928071431582794
9.42,2.3892298579739872
9.424,2.3898802734620403
9.428,2.3905306889500935
9.432,2.3876038192538545
9.436,2.3859777805337217
9.44,2.387929026997881
9.444,2.3892298579739872
9.448,2.385002157301642
9.452,2.3837013263255358
9.456,2.3859777805337217
9.46,2.3882542347419076
9.464,2.3863029882777482
9.468,2.3804492488852702
9.472,2.3837013263255358
9.476,2.3856525727896951
9.48,2.382075287605403
9.484,2.3824004953494295
9.488,2.3921567276702262
9.492,2.3954088051104918
9.496,2.3931323509023059
9.5,2.3980104670627043
9.504,2.3905306889500935
9.508,2.3898802734620403
9.512,2.396709636086598
9.516,2.4025633754790761
9.52,2.4009373367589433
9.524,2.4074414916394744
9.528,2.4071162838954479
9.532,2.4061406606633682
9.536,2.4084171148715541
9.54,2.4145960620080587
9.544,2.4211002168885898
9.548,2.4266287485370412
9.552,2.4276043717691209
9.556,2.4321572801854927
9.56,2.4373606040899176
9.564,2.4331329034175724
9.568,2.4295556182332803
9.572,2.4292304104892537
9.576,2.4318320724414662
9.58,2.431181656953413
9.584,2.425327917560935
9.588,2.4237018788408022
9.592,2.4227262556087226
9.596,2.4256531253049616
9.6,2.428254787257174
9.604,2.4305312414653599
9.608,2.4324824879295193
9.612,2.434108526649652
9.616,2.431181656953413
9.62,2.4292304104892537
9.624,2.4289052027452271
9.628,2.4315068646974396
9.632,2.4370353963458911
9.636,2.4383362273219973
9.64,2.4409378892742097
9.644,2.4445151744585019
9.648,2.4474420441547409
9.652,2.448092459642794
9.656,2.4555722377554048
9.66,2.4601251461717766
9.664,2.4594747306837235
9.668,2.4545966145233251
9.672,2.4555722377554048
9.676,2.4532957835472189
9.68,2.4516697448270861
9.684,2.4428891357383691
9.688,2.4448403822025284
9.692,2.4526453680591658
9.696,2.4526453680591658
9.7,2.4432143434823956
9.704,2.4360597731138114
9.708,2.4334581111615989
9.712,2.4389866428100504
9.716,2.4409378892742097
9.72,2.439311850554077
9.724,2.4350841498817317
9.728,2.4350841498817317
9.732,2.4308564492093865
9.736,2.4256531253049616
9.74,2.4256531253049616
9.744,2.4315068646974396
9.748,2.4363849808578379
9.752,2.4428891357383691
9.756,2.4519949525711127
9.76,2.4611007694038562
9.764,2.4646780545881484
9.768,2.4676049242843874
9.772,2.4705317939806264
9.776,2.4731334559328388
9.78,2.4711822094686795
9.784,2.4633772236120421
9.788,2.4487428751308471
9.792,2.4399622660421301
9.796,2.4438647589704487
9.8,2.4493932906189002
9.804,2.4461412131786346
9.808,2.4467916286666878
9.812,2.4506941215950064
9.816,2.4493932906189002
9.82,2.4373606040899176
9.824,2.4380110195779707
9.828,2.4419135125062894
9.832,2.4432143434823956
9.836,2.4435395512264222
9.84,2.4493932906189002
9.844,2.462726808123989
9.848,2.4594747306837235
9.852,2.4516697448270861
9.856,2.4467916286666878
9.86,2.4425639279943425
9.864,2.439311850554077
9.868,2.4471168364107143
9.872,2.4802880263014231
9.876,2.5463051983388141
9.88,2.6240298491611611
9.884,2.7277711195056327
9.888,2.8493988157715648
9.892,2.9576929945324082
9.896,3.0328159834025428
9.9,3.0549301099963486
9.904,2.9232209736655932
9.908,2.6282575498335063
9.912,2.3404486963700037
9.916,2.1713406694761943
9.92,2.1134536910394672
9.924,2.1202830536640249
9.928,2.1680885920359287
9.932,2.2331301408412401
9.936,2.2880902495817281
9.94,2.3407739041140303
9.944,2.3856525727896951
9.948,2.413620438775979
9.952,2.4214254246326163
9.956,2.4240270865848288
9.96,2.4295556182332803
9.964,2.4289052027452271
9.968,2.4233766710967757
9.972,2.4276043717691209
9.976,2.4399622660421301
9.98,2.4428891357383691
9.984,2.4445151744585019
9.988,2.4419135125062894
9.992,2.4435395512264222
9.996,2.4458160054346081
10,2.4376858118339442
10.004,2.4383362273219973
10.008,2.4448403822025284
10.012,2.4493932906189002
10.016,2.4513445370830595
10.02,2.4578486919635907
10.024,2.4663040933082812
10.028,2.4702065862365998
10.032,2.4682553397724405
10.036,2.4663040933082812
10.04,2.465653677820228
10.044,2.4640276391000953
10.048,2.465653677820228
10.052,2.4698813784925733
10.056,2.4786619875812903
10.06,2.4858165579498746
10.064,2.4877678044140339
10.068,2.4919955050863791
10.072,2.5079306845436804
10.076,2.5232154485129286
10.08,2.5378497969941236
10.084,2.5495572757790796
10.088,2.5537849764514249
10.092,2.5628907932841685
10.096,2.5710209868848324
10.1,2.5755738953012042
10.104,2.5866309585981071
10.108,2.6028913457994349
10.112,2.6185013175127096
10.116,2.6214281872089487
10.12,2.6253306801372673
10.124,2.6324852505058516
10.128,2.6360625356901437
10.132,2.638013782154303
10.136,2.638013782154303
10.14,2.638013782154303
10.144,2.6373633666662499
10.148,2.629233173065586
10.152,2.6207777717208955
10.156,2.6136232013523113
10.16,2.5986636451270897
10.164,2.5798015959735494
10.168,2.5576874693797436
10.172,2.5342725118098315
10.176,2.5128088007040787
10.18,2.4828896882536355
10.184,2.4477672518987674
10.188,2.4217506323766429
10.192,2.3957340128545184
10.196,2.3726442630286328
10.2,2.3606115764996503
10.204,2.3550830448511988
10.208,2.3450016047863755
10.212,2.3303672563051805
10.216,2.3206110239843838
10.22,2.3150824923359323
10.224,2.3176841542881448
10.228,2.3134564536157995
10.232,2.307277506479295
10.236,2.3059766755031887
10.24,2.3001229361107107
10.244,2.3004481438547373
10.248,2.3085783374554012
10.252,2.3186597775202245
10.256,2.3274403866089415
10.26,2.3297168408171274
10.264,2.3267899711208884
10.268,2.3245135169127025
10.272,2.3222370627045166
10.276,2.3290664253290743
10.28,2.3319932950253133
10.284,2.3290664253290743
10.288,2.3342697492334992
10.292,2.3352453724655788
10.296,2.3371966189297382
10.3,2.3427251505781896
10.304,2.3508553441788536
10.308,2.3560586680832785
10.312,2.3596359532675706
10.316,2.3606115764996503
10.32,2.3638636539399158
10.324,2.3638636539399158
10.328,2.3586603300354909
10.332,2.3508553441788536
10.336,2.3482536822266411
10.34,2.3580099145474378
10.344,2.3661401081481017
10.348,2.3690669778443407
10.352,2.3664653158921283
10.356,2.3635384461958893
10.36,2.3612619919877034
10.364,2.3628880307078362
10.368,2.3615871997317299
10.372,2.3596359532675706
10.376,2.3632132384518627
10.38,2.365164484916022
10.384,2.3606115764996503
10.388,2.3612619919877034
10.392,2.3615871997317299
10.396,2.3645140694279689
10.4,2.3661401081481017
10.404,2.3687417701003142
10.408,2.3664653158921283
10.412,2.3619124074757565
10.416,2.356383875827305
10.42,2.3547578371071722
10.424,2.3589855377795175
10.428,2.3658149004040752
10.432,2.3671157313801814
10.436,2.3645140694279689
10.44,2.359310745523544
10.444,2.3602863687556237
10.448,2.362237615219783
10.452,2.356383875827305
10.456,2.3580099145474378
10.46,2.3654896926600486
10.464,2.3677661468682345
10.468,2.3654896926600486
10.472,2.3645140694279689
10.476,2.3713434320525266
10.48,2.3745955094927922
10.484,2.3693921855883673
10.488,2.3680913546122611
10.492,2.3729694707726594
10.496,2.3794736256531905
10.5,2.3771971714450046
10.504,2.3752459249808453
10.508,2.3794736256531905
10.512,2.3794736256531905
10.516,2.3794736256531905
10.52,2.3807744566292968
10.524,2.3853273650456686
10.528,2.3882542347419076
10.532,2.3872786115098279
10.536,2.3856525727896951
10.54,2.3859777805337217
10.544,2.387929026997881
10.548,2.3876038192538545
10.552,2.3827257030934561
10.556,2.3824004953494295
10.56,2.387929026997881
10.564,2.3902054812060669
10.568,2.3934575586463325
10.572,2.396709636086598
10.576,2.4002869212708902
10.58,2.4051650374312885
10.584,2.4058154529193416
10.588,2.4132952310319524
10.592,2.4178481394483242
10.596,2.4097179458476603
10.6,2.4019129599910229
10.604,2.4012625445029698
10.608,2.4032137909671292
10.612,2.4071162838954479
10.616,2.4123196077998728
10.62,2.4123196077998728
10.624,2.4139456465200055
10.628,2.4201245936565101
10.632,2.4272791640250944
10.636,2.4272791640250944
10.64,2.4237018788408022
10.644,2.4302060337213334
10.648,2.4363849808578379
10.652,2.4350841498817317
10.656,2.4363849808578379
10.66,2.4289052027452271
10.664,2.4263035407930147
10.668,2.4259783330489881
10.672,2.4279295795131475
10.676,2.4321572801854927
10.68,2.4448403822025284
10.684,2.4506941215950064
10.688,2.4467916286666878
10.692,2.4497184983629268
10.696,2.4438647589704487
10.7,2.4318320724414662
10.704,2.431181656953413
10.708,2.4389866428100504
10.712,2.4441899667144753
10.716,2.4425639279943425
10.72,2.4396370582981035
10.724,2.4337833189056255
10.728,2.4308564492093865
10.732,2.4321572801854927
10.736,2.4454907976905815
10.74,2.4653284700762015
10.744,2.4747594946529716
10.748,2.4705317939806264
10.752,2.4679301320284139
10.756,2.4669545087963343
10.76,2.465653677820228
10.764,2.4679301320284139
10.768,2.4705317939806264
10.772,2.4650032623321749
10.776,2.4617511848919094
10.78,2.4594747306837235
10.784,2.4552470300113782
10.788,2.4542714067792986
10.792,2.4513445370830595
10.796,2.4487428751308471
10.8,2.4363849808578379
10.804,2.4367101886018645
10.808,2.4432143434823956
10.812,2.4438647589704487
10.816,2.4445151744585019
10.82,2.4396370582981035
10.824,2.4318320724414662
10.828,2.4389866428100504
10.832,2.4519949525711127
10.836,2.4578486919635907
10.84,2.4630520158680156
10.844,2.4659788855642546
10.848,2.4676049242843874
10.852,2.4786619875812903
10.856,2.5245162794890348
10.86,2.6061434232397005
10.864,2.701104084495455
10.868,2.8028941083757672
10.872,2.9118387026246637
10.876,2.9954170928394888
10.88,3.028263074986171
10.884,2.9863112760067452
10.888,2.7794791508058552
10.892,2.488418219902087
10.896,2.2702038236602675
10.9,2.1658121378277428
10.904,2.1560559055069461
10.908,2.1879262644215487
10.912,2.2490653202985413
10.916,2.3141068691038527
10.92,2.3739450940047391
10.924,2.4331329034175724
10.928,2.4711822094686795
10.932,2.4851661424618214
10.936,2.4877678044140339
10.94,2.4861417656939011
10.944,2.494271959294565
10.948,2.497198828990804
10.952,2.4962232057587244
10.956,2.494271959294565
10.96,2.4981744522228837
10.964,2.5030525683832821
10.968,2.4994752831989899
10.972,2.5020769451512024
10.976,2.5020769451512024
10.98,2.5059794380795211
10.984,2.5095567232638132
10.988,2.5098819310078397
10.992,2.5124835929600522
10.996,2.5183373323525302
11,2.5183373323525302
11.004,2.5131340084481053
11.008,2.517036501376424
11.012,2.5280935646733269
11.016,2.5365489660180174
11.02,2.5414270821784157
11.024,2.5560614306596108
11.028,2.5606143390759826
11.032,2.5693949481646996
11.036,2.5778503495093901
11.04,2.5879317895742133
11.044,2.5937855289666913
11.048,2.5970376064069569
11.052,2.5970376064069569
11.056,2.5993140606151428
11.06,2.6097207084239926
11.064,2.6217533949529752
11.068,2.6337860814819578
11.072,2.6474448067310732
11.076,2.6614287397242151
11.08,2.6705345565569587
11.084,2.6763882959494367
11.088,2.68646973601426
11.092,2.6919982676627114
11.096,2.6985024225432426
11.1,2.6978520070551895
11.104,2.7076082393759862
11.108,2.7167140562087297
11.112,2.7206165491370484
11.116,2.7251694575534202
11.12,2.7225677956012078
11.124,2.7219173801131546
11.128,2.7176896794408094
11.132,2.7102099013281986
11.136,2.7007788767514285
11.14,2.6867949437582865
11.144,2.669558933324879
11.148,2.6441927292908076
11.152,2.6165500710485503
11.156,2.5944359444547445
11.16,2.5687445326766465
11.164,2.5407766666903626
11.168,2.5167112936323974
11.172,2.4984996599669103
11.176,2.4809384417894762
11.18,2.4646780545881484
11.184,2.453946199035272
11.188,2.4334581111615989
11.192,2.4126448155438993
11.196,2.4045146219432354
11.2,2.4054902451753151
11.204,2.3999617135268636
11.208,2.3947583896224387
11.212,2.3895550657180138
11.216,2.3872786115098279
11.22,2.3869534037658013
11.224,2.3843517418135889
11.228,2.3830509108374827
11.232,2.3817500798613764
11.236,2.385002157301642
11.24,2.3931323509023059
11.244,2.3928071431582794
11.248,2.3837013263255358
11.252,2.3814248721173499
11.256,2.3856525727896951
11.26,2.3931323509023059
11.264,2.396709636086598
11.268,2.4006121290149167
11.272,2.3921567276702262
11.276,2.3830509108374827
11.28,2.3804492488852702
11.284,2.3872786115098279
11.288,2.3905306889500935
11.292,2.3963844283425715
11.296,2.4025633754790761
11.3,2.4006121290149167
11.304,2.3976852593186777
11.308,2.3950835973664653
11.312,2.4012625445029698
11.316,2.4051650374312885
11.32,2.4045146219432354
11.324,2.4090675303596072
11.328,2.4178481394483242
11.332,2.4126448155438993
11.336,2.4019129599910229
11.34,2.3950835973664653
11.344,2.3963844283425715
11.348,2.4061406606633682
11.352,2.4071162838954479
11.356,2.4054902451753151
11.36,2.4041894141992088
11.364,2.4084171148715541
11.368,2.4087423226155806
11.372,2.4071162838954479
11.376,2.41069356907974
11.38,2.4103683613357134
11.384,2.4084171148715541
11.388,2.3983356748067308
11.392,2.3924819354142528
11.396,2.3976852593186777
11.4,2.4019129599910229
11.404,2.4009373367589433
11.408,2.3983356748067308
11.412,2.3976852593186777
11.416,2.396709636086598
11.42,2.4038642064551823
11.424,2.4110187768237665
11.428,2.4181733471923508
11.432,2.4188237626804039
11.436,2.4269539562810678
11.44,2.4419135125062894
11.444,2.4565478609874845
11.448,2.4611007694038562
11.452,2.456873068731511
11.456,2.4653284700762015
11.46,2.4851661424618214
11.464,2.4949223747826181
11.468,2.5007761141750962
11.472,2.5014265296631493
11.476,2.5004509064310696
11.48,2.5017517374071758
11.484,2.5020769451512024
11.488,2.5085811000317335
11.492,2.514109631680185
11.496,2.5193129555846099
11.5,2.5128088007040787
11.504,2.5056542303354945
11.508,2.5092315155197866
11.512,2.511182761983946
11.516,2.5024021528952289
11.52,2.4916702973423526
11.524,2.4871173889259808
11.528,2.4819140650215559
11.532,2.4760603256290779
11.536,2.4689057552604936
11.54,2.4666293010523077
11.544,2.4643528468441218
11.548,2.4659788855642546
11.552,2.4711822094686795
11.556,2.4760603256290779
11.56,2.4747594946529716
11.564,2.4695561707485467
11.568,2.4663040933082812
11.572,2.4650032623321749
11.576,2.4715074172127061
11.58,2.4666293010523077
11.584,2.4536209912912454
11.588,2.4497184983629268
11.592,2.453946199035272
11.596,2.4542714067792986
11.6,2.4428891357383691
11.604,2.4344337343936786
11.608,2.4370353963458911
11.612,2.4454907976905815
11.616,2.4441899667144753
11.62,2.4474420441547409
11.624,2.4493932906189002
11.628,2.4461412131786346
11.632,2.4448403822025284
11.636,2.4425639279943425
11.64,2.4376858118339442
11.644,2.4328076956735458
11.648,2.431181656953413
11.652,2.428254787257174
11.656,2.428254787257174
11.66,2.4285799950012006
11.664,2.419474178168457
11.668,2.4184985549363773
11.672,2.4217506323766429
11.676,2.4207750091445632
11.68,2.4269539562810678
11.684,2.4367101886018645
11.688,2.451019329339033
11.692,2.4552470300113782
11.696,2.4594747306837235
11.7,2.4643528468441218
11.704,2.4672797165403608
11.708,2.4591495229396969
11.712,2.4490680828748737
11.716,2.442238720250316
11.72,2.4383362273219973
11.724,2.4334581111615989
11.728,2.4419135125062894
11.732,2.4412630970182363
11.736,2.434108526649652
11.74,2.4328076956735458
11.744,2.4402874737861566
11.748,2.4471168364107143
11.752,2.4519949525711127
11.756,2.4516697448270861
11.76,2.4477672518987674
11.764,2.4493932906189002
11.768,2.4428891357383691
11.772,2.4448403822025284
11.776,2.4500437061069533
11.78,2.4419135125062894
11.784,2.425327917560935
11.788,2.4246775020728819
11.792,2.434108526649652
11.796,2.4558974454994313
11.8,2.4845157269737683
11.804,2.542727913154522
11.808,2.6256558878812939
11.812,2.7378525595704559
11.816,2.8565533861401491
11.82,2.971026512037497
11.824,3.0474503318837378
11.828,3.048751162859844
11.832,2.8854968753585126
11.836,2.5814276346936822
11.84,2.2942691967182327
11.844,2.1303644937288482
11.848,2.0793068779166788
11.852,2.0968680960941128
11.856,2.1508525816025212
11.86,2.2210974543122575
11.864,2.2890658728138078
11.868,2.350530136434827
11.872,2.4064658684073947
11.876,2.4389866428100504
11.88,2.4503689138509799
11.884,2.4529705758031923
11.888,2.4549218222673517
11.892,2.4646780545881484
11.896,2.4698813784925733
11.9,2.476710741117131
11.904,2.4734586636768654
11.908,2.4643528468441218
11.912,2.4666293010523077
11.916,2.4754099101410247
11.92,2.4747594946529716
11.924,2.4773611566051841
11.928,2.4809384417894762
11.932,2.4812636495335028
11.936,2.4828896882536355
11.94,2.4906946741102729
11.944,2.4958979980146978
11.948,2.5056542303354945
11.952,2.5037029838713352
11.956,2.4975240367348306
11.96,2.5017517374071758
11.964,2.5150852549122646
11.968,2.5196381633286364
11.972,2.5219146175368223
11.976,2.522890240768902
11.98,2.5267927336972207
11.984,2.5336220963217784
11.988,2.5489068602910265
11.992,2.5645168320043012
11.996,2.5664680784684606
12,2.5710209868848324
12.004,2.5850049198779743
12.008,2.6025661380554084
12.012,2.6126475781202316
12.016,2.6220786026970018
12.02,2.6250054723932408
12.024,2.6344364969700109
12.028,2.6464691834989935
12.032,2.6611035319801886
12.036,2.6692337255808525
12.04,2.6815916198538616
12.044,2.6945999296149239
12.048,2.7033805387036409
12.052,2.7053317851678003
12.056,2.7128115632804111
12.06,2.718014887184836
12.064,2.7154132252326235
12.068,2.7050065774237737
12.072,2.6939495141268708
12.076,2.6900470211985521
12.08,2.6822420353419147
12.084,2.6728110107651446
12.088,2.6539489616116043
12.092,2.623379433673108
12.096,2.5954115676868241
12.1,2.5674437017005403
12.104,2.5404514589463361
12.108,2.5131340084481053
12.112,2.4812636495335028
12.116,2.4558974454994313
12.12,2.431181656953413
12.124,2.404839829687262
12.128,2.3856525727896951
12.132,2.3781727946770843
12.136,2.3641888616839424
12.14,2.3567090835713316
12.144,2.350530136434827
12.148,2.3316680872812867
12.152,2.3232126859365962
12.156,2.3274403866089415
12.16,2.3300420485611539
12.164,2.338822657649871
12.168,2.3450016047863755
12.172,2.3437007738102693
12.176,2.3410991118580569
12.18,2.3381722421618178
12.184,2.3427251505781896
12.188,2.3463024357624818
12.192,2.3508553441788536
12.196,2.3589855377795175
12.2,2.3554082525952253
12.204,2.3515057596669067
12.208,2.3515057596669067
12.212,2.3479284744826145
12.216,2.3450016047863755
12.22,2.3427251505781896
12.224,2.3459772280184552
12.228,2.3580099145474378
12.232,2.3690669778443407
12.236,2.3771971714450046
12.24,2.3810996643733233
12.244,2.3856525727896951
12.248,2.3954088051104918
12.252,2.4041894141992088
12.256,2.4080919071275275
12.26,2.404839829687262
12.264,2.4064658684073947
12.268,2.4100431535916869
12.272,2.4116691923118196
12.276,2.4074414916394744
12.28,2.4093927381036337
12.284,2.4119944000558462
12.288,2.4126448155438993
12.292,2.4123196077998728
12.296,2.4132952310319524
12.3,2.4145960620080587
12.304,2.4155716852401383
12.308,2.4181733471923508
12.312,2.4204498014005367
12.316,2.4171977239602711
12.32,2.413620438775979
12.324,2.4087423226155806
12.328,2.4155716852401383
12.332,2.4207750091445632
12.336,2.4243522943288554
12.34,2.4285799950012006
12.344,2.4357345653697848
12.348,2.4350841498817317
12.352,2.4217506323766429
12.356,2.413620438775979
12.36,2.416547308472218
12.364,2.4272791640250944
12.368,2.4354093576257583
12.372,2.439311850554077
12.376,2.4324824879295193
12.38,2.4259783330489881
12.384,2.431181656953413
12.388,2.4363849808578379
12.392,2.4406126815301832
12.396,2.4360597731138114
12.4,2.4328076956735458
12.404,2.4289052027452271
12.408,2.4305312414653599
12.412,2.4461412131786346
12.416,2.4575234842195641
12.42,2.4406126815301832
12.424,2.4324824879295193
12.428,2.4298808259773068
12.432,2.4295556182332803
12.436,2.4357345653697848
12.44,2.4350841498817317
12.444,2.4318320724414662
12.448,2.4360597731138114
12.452,2.4474420441547409
12.456,2.4571982764755376
12.46,2.4584991074516438
12.464,2.4604503539158031
12.468,2.4643528468441218
12.472,2.456873068731511
12.476,2.4588243151956704
12.48,2.4578486919635907
12.484,2.4542714067792986
12.488,2.4591495229396969
12.492,2.4584991074516438
12.496,2.4529705758031923
12.5,2.4523201603151392
12.504,2.4542714067792986
12.508,2.4565478609874845
12.512,2.4624016003799625
12.516,2.4633772236120421
12.52,2.4676049242843874
12.524,2.4698813784925733
12.528,2.4650032623321749
12.532,2.4653284700762015
12.536,2.4676049242843874
12.54,2.4780115720932372
12.544,2.494271959294565
12.548,2.4988248677109368
12.552,2.5027273606392555
12.556,2.5193129555846099
12.56,2.5326464730896987
12.564,2.5310204343695659
12.568,2.5157356704003178
12.572,2.5066298535675742
12.576,2.5024021528952289
12.58,2.5098819310078397
12.584,2.5069550613116007
12.588,2.5066298535675742
12.592,2.5118331774719991
12.596,2.5154104626562912
12.6,2.514109631680185
12.604,2.5144348394242115
12.608,2.511182761983946
12.612,2.5043533993593883
12.616,2.5004509064310696
12.62,2.5004509064310696
12.624,2.4984996599669103
12.628,2.4955727902706712
12.632,2.4952475825266447
12.636,2.4949223747826181
12.64,2.4981744522228837
12.644,2.4952475825266447
12.648,2.497198828990804
12.652,2.5004509064310696
12.656,2.5209389943047427
12.66,2.5762243107892573
12.664,2.6627295707003213
12.668,2.7746010346454568
12.672,2.910863079392584
12.676,3.048751162859844
12.68,3.1417605776514392
12.684,3.1466386938118376
12.688,2.9980187547917012
12.692,2.6858193205262069
12.696,2.3498797209467739
12.7,2.1391451028175652
12.704,2.0584935822989792
12.708,2.0679246068757493
12.712,2.1355678176332731
12.716,2.221422662056284
12.72,2.3059766755031887
12.724,2.3837013263255358
12.728,2.439311850554077
12.732,2.4643528468441218
12.736,2.4806132340454496
12.74,2.488418219902087
12.744,2.4858165579498746
12.748,2.4877678044140339
12.752,2.4880930121580604
12.756,2.4903694663662463
12.76,2.5050038148474414
12.764,2.5069550613116007
12.768,2.5027273606392555
12.772,2.5020769451512024
12.776,2.4965484135027509
12.78,2.4949223747826181
12.784,2.5004509064310696
12.788,2.5033777761273086
12.792,2.5050038148474414
12.796,2.5105323464958929
12.8,2.5154104626562912
12.804,2.5157356704003178
12.808,2.5176869168644771
12.812,2.5167112936323974
12.816,2.5095567232638132
12.82,2.5105323464958929
12.824,2.5193129555846099
12.828,2.5336220963217784
12.832,2.5453295751067344
12.836,2.5443539518746547
12.84,2.545654782850761
12.844,2.5554110151715577
12.848,2.566142870724434
12.852,2.5729722333489917
12.856,2.5850049198779743
12.86,2.594761152198771
12.864,2.6067938387277536
12.868,2.6198021484888159
12.872,2.6344364969700109
12.876,2.6474448067310732
12.88,2.6568758313078433
12.884,2.6715101797890384
12.888,2.683542866318021
12.892,2.6906974366866052
12.896,2.7020797077275347
12.9,2.715088017488597
12.904,2.7235434188332874
12.908,2.7261450807854999
12.912,2.7362265208503231
12.916,2.7404542215226684
12.92,2.7362265208503231
12.924,2.7349256898742169
12.928,2.7290719504817389
12.932,2.7173644716967829
12.936,2.7102099013281986
12.94,2.6949251373589505
12.944,2.6763882959494367
12.948,2.6568758313078433
12.952,2.6259810956253204
12.956,2.5934603212226648
12.96,2.5589883003558498
12.964,2.5261423182091676
12.968,2.4903694663662463
12.972,2.4542714067792986
12.976,2.4211002168885898
12.98,2.3950835973664653
12.984,2.3797988333972171
12.988,2.3693921855883673
12.992,2.3586603300354909
12.996,2.3456520202744287
13,2.330692464049207
13.004,2.3215866472164635
13.008,2.3238631014246494
13.012,2.3264647633768618
13.016,2.324838724656729
13.02,2.3251639324007556
13.024,2.3293916330731008
13.028,2.3326437105133664
13.032,2.3349201647215523
13.036,2.3323185027693398
13.04,2.3319932950253133
13.044,2.3355705802096054
13.048,2.3375218266737647
13.052,2.3339445414894726
13.056,2.3362209956976585
13.06,2.3472780589945614
13.064,2.3492293054587208
13.068,2.3492293054587208
13.072,2.3502049286908004
13.076,2.353457006131066
13.08,2.3567090835713316
13.084,2.3602863687556237
13.088,2.3645140694279689
13.092,2.3684165623562876
13.096,2.3710182243085001
13.1,2.3706930165644735
13.104,2.373294678516686
13.108,2.3739450940047391
13.112,2.3745955094927922
13.116,2.3814248721173499
13.12,2.3898802734620403
13.124,2.3973600515746512
13.128,2.4064658684073947
13.132,2.4129700232879259
13.136,2.4191489704244304
13.14,2.4334581111615989
13.144,2.4425639279943425
13.148,2.442238720250316
13.152,2.442238720250316
13.156,2.4497184983629268
13.16,2.4584991074516438
13.164,2.4633772236120421
13.168,2.4692309630045202
13.172,2.4776863643492106
13.176,2.4874425966700073
13.18,2.4890686353901401
13.184,2.4871173889259808
13.188,2.4867921811819542
13.192,2.4919955050863791
13.196,2.4975240367348306
13.2,2.5095567232638132
13.204,2.5163860858883709
13.208,2.5215894097927958
13.212,2.5196381633286364
13.216,2.5128088007040787
13.22,2.5108575542399194
13.224,2.5277683569293004
13.228,2.566142870724434
13.232,2.6136232013523113
13.236,2.6656564403965604
13.24,2.7271207040175796
13.244,2.8032193161197938
13.248,2.8731389810855035
13.252,2.8884237450547516
13.256,2.8539517241879366
13.26,2.8051705625839531
13.264,2.7609423093963414
13.268,2.7189905104169156
13.272,2.689396605710499
13.276,2.6698841410689056
13.28,2.6529733383795246
13.284,2.6337860814819578
13.288,2.6097207084239926
13.292,2.5876065818301868
13.296,2.5706957791408058
13.3,2.5541101841954514
13.304,2.5388254202262033
13.308,2.5277683569293004
13.312,2.5209389943047427
13.316,2.517036501376424
13.32,2.5232154485129286
13.324,2.5215894097927958
13.328,2.5092315155197866
13.332,2.5020769451512024
13.336,2.4897190508781932
13.34,2.4809384417894762
13.344,2.4815888572775293
13.348,2.485491350205848
13.352,2.4871173889259808
13.356,2.4871173889259808
13.36,2.4955727902706712
13.364,2.5017517374071758
13.368,2.5059794380795211
13.372,2.4991500754549634
13.376,2.4848409347177949
13.38,2.473783871420892
13.384,2.4581738997076172
13.388,2.4487428751308471
13.392,2.4513445370830595
13.396,2.4503689138509799
13.4,2.4493932906189002
13.404,2.4471168364107143
13.408,2.4461412131786346
13.412,2.4471168364107143
13.416,2.442238720250316
13.42,2.4347589421377052
13.424,2.4328076956735458
13.428,2.431181656953413
13.432,2.4188237626804039
13.436,2.413620438775979
13.44,2.4119944000558462
13.444,2.422401047864696
13.448,2.4298808259773068
13.452,2.4305312414653599
13.456,2.4295556182332803
13.46,2.4363849808578379
13.464,2.4588243151956704
13.468,2.5072802690556273
13.472,2.580126803717576
13.476,2.6682581023487728
13.48,2.7752514501335099
13.484,2.8959035231673624
13.488,2.9976935470476747
13.492,3.0451738776755519
13.496,2.9950918850954622
13.5,2.7482592073793057
13.504,2.404839829687262
13.508,2.1550802822748665
13.512,2.0451600647938903
13.516,2.0256476001522969
13.52,2.0653229449235369
13.524,2.1329661556810606
13.528,2.2116664297354873
13.532,2.2828869256773032
13.536,2.3420747350901365
13.54,2.3837013263255358
13.544,2.4012625445029698
13.548,2.4058154529193416
13.552,2.4006121290149167
13.556,2.3963844283425715
13.56,2.4019129599910229
13.564,2.4054902451753151
13.568,2.404839829687262
13.572,2.4097179458476603
13.576,2.4162221007281914
13.58,2.425327917560935
13.584,2.4214254246326163
13.588,2.4204498014005367
13.592,2.4217506323766429
13.596,2.4230514633527491
13.6,2.422401047864696
13.604,2.4227262556087226
13.608,2.4263035407930147
13.612,2.4308564492093865
13.616,2.4315068646974396
13.62,2.4321572801854927
13.624,2.4350841498817317
13.628,2.4428891357383691
13.632,2.4497184983629268
13.636,2.4516697448270861
13.64,2.4503689138509799
13.644,2.4571982764755376
13.648,2.4643528468441218
13.652,2.4669545087963343
13.656,2.4682553397724405
13.66,2.4754099101410247
13.664,2.4822392727655824
13.668,2.4867921811819542
13.672,2.4929711283184588
13.676,2.4975240367348306
13.68,2.5066298535675742
13.684,2.5176869168644771
13.688,2.5280935646733269
13.692,2.5381750047381502
13.696,2.5528093532193452
13.7,2.5612647545640357
13.704,2.5697201559087262
13.708,2.5820780501817353
13.712,2.5892326205503196
13.716,2.5983384373830631
13.72,2.6009400993352756
13.724,2.6038669690315146
13.728,2.6119971626321785
13.732,2.6162248633045238
13.736,2.6084198774478864
13.74,2.603541761287488
13.744,2.5950863599427976
13.748,2.5807772192056291
13.752,2.5664680784684606
13.756,2.5463051983388141
13.76,2.5219146175368223
13.764,2.4965484135027509
13.768,2.4672797165403608
13.772,2.4389866428100504
13.776,2.4123196077998728
13.78,2.3830509108374827
13.784,2.3580099145474378
13.788,2.3407739041140303
13.792,2.3310176717932336
13.796,2.3150824923359323
13.8,2.3017489748308435
13.804,2.2949196122062858
13.808,2.2893910805578344
13.812,2.2871146263496485
13.816,2.2828869256773032
13.82,2.2809356792131439
13.824,2.2825617179332767
13.828,2.2776836017728783
13.832,2.2692282004281878
13.836,2.2623988378036302
13.84,2.2650004997558426
13.844,2.27280548561248
13.848,2.2780088095169049
13.852,2.2731306933565065
13.856,2.2702038236602675
13.86,2.2695534081722144
13.864,2.2702038236602675
13.868,2.269878615916241
13.872,2.2737811088445596
13.876,2.2848381721414626
13.88,2.2916675347660203
13.884,2.2900414960458875
13.888,2.2835373411653563
13.892,2.2828869256773032
13.896,2.2825617179332767
13.9,2.2832121334213298
13.904,2.2897162883018609
13.908,2.2952448199503124
13.912,2.3027245980629232
13.916,2.3147572845919058
13.92,2.3144320768478792
13.924,2.3095539606874809
13.928,2.3134564536157995
13.932,2.3163833233120386
13.936,2.3137816613598261
13.94,2.3163833233120386
13.944,2.3225622704485431
13.948,2.3274403866089415
13.952,2.3303672563051805
13.956,2.3316680872812867
13.96,2.3352453724655788
13.964,2.3316680872812867
13.968,2.3241883091686759
13.972,2.3280908020969946
13.976,2.3375218266737647
13.98,2.3404486963700037
13.984,2.3371966189297382
13.988,2.3381722421618178
13.992,2.3472780589945614
13.996,2.3541074216191191
14,2.3524813828989863
14.004,2.3453268125304021
14.008,2.3456520202744287
14.012,2.350530136434827
14.016,2.3531317983870395
14.02,2.3524813828989863
14.024,2.3635384461958893
14.028,2.362237615219783
14.032,2.353457006131066
14.036,2.347603266738588
14.04,2.350530136434827
14.044,2.3547578371071722
14.048,2.3537822138750926
14.052,2.3550830448511988
14.056,2.3596359532675706
14.06,2.3645140694279689
14.064,2.3658149004040752
14.068,2.3648392771719955
14.072,2.3680913546122611
14.076,2.3690669778443407
14.08,2.3719938475405797
14.084,2.3723190552846063
14.088,2.3723190552846063
14.092,2.3723190552846063
14.096,2.373294678516686
14.1,2.3716686397965532
14.104,2.3677661468682345
14.108,2.3700426010764204
14.112,2.3758963404688984
14.116,2.3810996643733233
14.12,2.3794736256531905
14.124,2.3837013263255358
14.128,2.3804492488852702
14.132,2.3810996643733233
14.136,2.3856525727896951
14.14,2.3869534037658013
14.144,2.3814248721173499
14.148,2.3801240411412437
14.152,2.3788232101651374
14.156,2.382075287605403
14.16,2.3863029882777482
14.164,2.3889046502299607
14.168,2.3856525727896951
14.172,2.3872786115098279
14.176,2.3824004953494295
14.18,2.3804492488852702
14.184,2.3781727946770843
14.188,2.3778475869330578
14.192,2.376221548212925
14.196,2.3804492488852702
14.2,2.382075287605403
14.204,2.379148417909164
14.208,2.3814248721173499
14.212,2.3830509108374827
14.216,2.3824004953494295
14.22,2.3794736256531905
14.224,2.3797988333972171
14.228,2.3882542347419076
14.232,2.4054902451753151
14.236,2.4162221007281914
14.24,2.4181733471923508
14.244,2.4217506323766429
14.248,2.4285799950012006
14.252,2.4324824879295193
14.256,2.428254787257174
14.26,2.4211002168885898
14.264,2.4158968929841649
14.268,2.4103683613357134
14.272,2.4061406606633682
14.276,2.413620438775979
14.28,2.4188237626804039
14.284,2.4207750091445632
14.288,2.4227262556087226
14.292,2.4289052027452271
14.296,2.4357345653697848
14.3,2.4396370582981035
14.304,2.4402874737861566
14.308,2.434108526649652
14.312,2.4324824879295193
14.316,2.4308564492093865
14.32,2.4292304104892537
14.324,2.4305312414653599
14.328,2.4295556182332803
14.332,2.4250027098169085
14.336,2.4162221007281914
14.34,2.407766699383501
14.344,2.4113439845677931
14.348,2.4380110195779707
14.352,2.5024021528952289
14.356,2.5970376064069569
14.36,2.7004536690074019
14.364,2.8119999252085108
14.368,2.9362292834266555
14.372,3.0393201382830739
14.376,3.0887517153751105
14.38,3.0289134904742241
14.384,2.7749262423894834
14.388,2.4373606040899176
14.392,2.2061378980870359
14.396,2.1163805607357062
14.4,2.1102016135992017
14.404,2.1472752964182291
14.408,2.209715183271328
14.412,2.2770331862848252
14.416,2.3355705802096054
14.42,2.3853273650456686
14.424,2.4155716852401383
14.428,2.4269539562810678
14.432,2.4337833189056255
14.436,2.4363849808578379
14.44,2.4448403822025284
14.444,2.4503689138509799
14.448,2.4542714067792986
14.452,2.45979993842775
14.456,2.4637024313560687
14.46,2.468580547516467
14.464,2.4692309630045202
14.468,2.4708570017246529
14.472,2.4715074172127061
14.476,2.4744342869089451
14.48,2.4780115720932372
14.484,2.4786619875812903
14.488,2.4773611566051841
14.492,2.4786619875812903
14.496,2.4864669734379277
14.5,2.4932963360624854
14.504,2.5007761141750962
14.508,2.5085811000317335
14.512,2.5134592161921319
14.516,2.519963371072663
14.52,2.5241910717450082
14.524,2.534597719553858
14.528,2.5414270821784157
14.532,2.5433783286425751
14.536,2.5466304060828406
14.54,2.5567118461476639
14.544,2.5719966101169121
14.548,2.5798015959735494
14.552,2.5866309585981071
14.556,2.5954115676868241
14.56,2.5999644761031959
14.564,2.6041921767755412
14.568,2.6126475781202316
14.572,2.6276071343454532
14.576,2.6438675215467811
14.58,2.6646808171644807
14.584,2.6845184895501006
14.588,2.6919982676627114
14.592,2.6936243063828442
14.596,2.6959007605910301
14.6,2.7001284612633754
14.604,2.7095594858401455
14.608,2.7248442498093937
14.612,2.7271207040175796
14.616,2.7206165491370484
14.62,2.7115107323043048
14.624,2.7037057464476675
14.628,2.6988276302872691
14.632,2.6809412043658085
14.636,2.6598027010040823
14.64,2.6445179370348342
14.644,2.6237046414171346
14.648,2.5993140606151428
14.652,2.5687445326766465
14.656,2.5424027054104954
14.66,2.5209389943047427
14.664,2.5037029838713352
14.668,2.4851661424618214
14.672,2.4611007694038562
14.676,2.4331329034175724
14.68,2.419474178168457
14.684,2.4025633754790761
14.688,2.387929026997881
14.692,2.3889046502299607
14.696,2.3853273650456686
14.7,2.3807744566292968
14.704,2.3784980024211109
14.708,2.3801240411412437
14.712,2.3810996643733233
14.716,2.3739450940047391
14.72,2.370367808820447
14.724,2.3710182243085001
14.728,2.3817500798613764
14.732,2.3853273650456686
14.736,2.3814248721173499
14.74,2.3830509108374827
14.744,2.3882542347419076
14.748,2.39085589669412
14.752,2.3872786115098279
14.756,2.3817500798613764
14.76,2.3827257030934561
14.764,2.3876038192538545
14.768,2.396709636086598
14.772,2.4028885832231026
14.776,2.4061406606633682
14.78,2.4067910761514213
14.784,2.3993112980388105
14.788,2.3993112980388105
14.792,2.4028885832231026
14.796,2.4093927381036337
14.8,2.4132952310319524
14.804,2.4197993859124836
14.808,2.4256531253049616
14.812,2.4250027098169085
14.816,2.4207750091445632
14.82,2.4142708542640321
14.824,2.4207750091445632
14.828,2.4276043717691209
14.832,2.4354093576257583
14.836,2.4389866428100504
14.84,2.4350841498817317
14.844,2.4315068646974396
14.848,2.4383362273219973
14.852,2.4445151744585019
14.856,2.4425639279943425
14.86,2.4464664209226612
14.864,2.4409378892742097
14.868,2.4344337343936786
14.872,2.4334581111615989
14.876,2.4331329034175724
14.88,2.4350841498817317
14.884,2.4324824879295193
14.888,2.4279295795131475
14.892,2.4246775020728819
14.896,2.4289052027452271
14.9,2.4302060337213334
14.904,2.4269539562810678
14.908,2.4175229317042977
14.912,2.416547308472218
14.916,2.419474178168457
14.92,2.4168725162162445
14.924,2.4227262556087226
14.928,2.4298808259773068
14.932,2.425327917560935
14.936,2.4201245936565101
14.94,2.4162221007281914
14.944,2.4149212697520852
14.948,2.4090675303596072
14.952,2.4087423226155806
14.956,2.4191489704244304
14.96,2.425327917560935
14.964,2.4272791640250944
14.968,2.4237018788408022
14.972,2.4269539562810678
14.976,2.4285799950012006
14.98,2.425327917560935
14.984,2.4266287485370412
14.988,2.4415883047622629
14.992,2.4484176673868205
14.996,2.4425639279943425
15,2.4357345653697848
15.004,2.4337833189056255
15.008,2.439311850554077
15.012,2.4376858118339442
15.016,2.4305312414653599
15.02,2.4292304104892537
15.024,2.434108526649652
15.028,2.439311850554077
15.032,2.439311850554077
15.036,2.4363849808578379
15.04,2.4357345653697848
15.044,2.4350841498817317
15.048,2.431181656953413
15.052,2.4302060337213334
15.056,2.4363849808578379
15.06,2.439311850554077
15.064,2.4386614350660238
15.068,2.4438647589704487
15.072,2.4373606040899176
15.076,2.442238720250316
15.08,2.4571982764755376
15.084,2.4549218222673517
15.088,2.4526453680591658
15.092,2.4532957835472189
15.096,2.4513445370830595
15.1,2.4529705758031923
15.104,2.4474420441547409
15.108,2.4428891357383691
15.112,2.4402874737861566
15.116,2.4406126815301832
15.12,2.4357345653697848
15.124,2.4324824879295193
15.128,2.4370353963458911
15.132,2.439311850554077
15.136,2.4308564492093865
15.14,2.4266287485370412
15.144,2.4315068646974396
15.148,2.442238720250316
15.152,2.4445151744585019
15.156,2.4412630970182363
15.16,2.439311850554077
15.164,2.4367101886018645
15.168,2.4409378892742097
15.172,2.448092459642794
15.176,2.4646780545881484
15.18,2.4741090791649185
15.184,2.4789871953253169
15.188,2.4903694663662463
15.192,2.4994752831989899
15.196,2.4998004909430165
15.2,2.4871173889259808
15.204,2.4689057552604936
15.208,2.4581738997076172
15.212,2.4549218222673517
15.216,2.4562226532434579
15.22,2.4545966145233251
15.224,2.4552470300113782
15.228,2.4536209912912454
15.232,2.451019329339033
15.236,2.4542714067792986
15.24,2.4542714067792986
15.244,2.4584991074516438
15.248,2.4650032623321749
15.252,2.4640276391000953
15.256,2.4633772236120421
15.26,2.468580547516467
15.264,2.4695561707485467
15.268,2.4650032623321749
15.272,2.4702065862365998
15.276,2.4731334559328388
15.28,2.4676049242843874
15.284,2.4581738997076172
15.288,2.4601251461717766
15.292,2.4802880263014231
15.296,2.5323212653456721
15.3,2.6224038104410283
15.304,2.7362265208503231
15.308,2.8757406430377159
15.312,3.0123278955288697
15.316,3.1043616870883852
15.32,3.1268010214262176
15.324,3.0272874517540913
15.328,2.7365517285943497
15.332,2.3898802734620403
15.336,2.1453240499540698
15.34,2.0536154661385808
15.344,2.068900230107829
15.348,2.1219090923841577
15.352,2.1947556270461064
15.356,2.2734559011005331
15.36,2.3430503583222162
15.364,2.4058154529193416
15.368,2.4415883047622629
15.372,2.4558974454994313
15.376,2.4676049242843874
15.38,2.4689057552604936
15.384,2.4702065862365998
15.388,2.473783871420892
15.392,2.4858165579498746
15.396,2.4819140650215559
15.4,2.4793124030693434
15.404,2.4802880263014231
15.408,2.4871173889259808
15.412,2.4968736212467775
15.416,2.5004509064310696
15.42,2.4975240367348306
15.424,2.497198828990804
15.428,2.500125698687043
15.432,2.5098819310078397
15.436,2.5186625400965568
15.44,2.5232154485129286
15.444,2.5261423182091676
15.448,2.5332968885777518
15.452,2.5371993815060705
15.456,2.5388254202262033
15.46,2.5433783286425751
15.464,2.5502076912671328
15.468,2.5518337299872655
15.472,2.5505328990111593
15.476,2.5586630926118232
15.48,2.5693949481646996
15.484,2.5742730643250979
15.488,2.5807772192056291
15.492,2.5960619831748772
15.496,2.6058182154956739
15.5,2.6084198774478864
15.504,2.6129727858642582
15.508,2.6272819266014267
15.512,2.6422414828266483
15.516,2.6545993770996574
15.52,2.663705193932401
15.524,2.6793151656456757
15.528,2.6985024225432426
15.532,2.7157384329766501
15.536,2.7215921723691281
15.54,2.7261450807854999
15.544,2.7342752743861638
15.548,2.7437062989629339
15.552,2.7508608693315182
15.556,2.7599666861642618
15.56,2.7645195945806336
15.564,2.7703733339731116
15.568,2.7850076824543066
15.572,2.8035445238638204
15.576,2.8051705625839531
15.58,2.7889101753826253
15.584,2.7697229184850585
15.588,2.7648448023246601
15.592,2.7645195945806336
15.596,2.7570398164680228
15.6,2.7443567144509871
15.604,2.7352508976182435
15.608,2.7222425878571812
15.612,2.6871201515023131
15.616,2.6406154441065155
15.62,2.5892326205503196
15.624,2.5498824835231062
15.628,2.5245162794890348
15.632,2.5076054767996538
15.636,2.494271959294565
15.64,2.4835401037416887
15.644,2.4786619875812903
15.648,2.4666293010523077
15.652,2.4545966145233251
15.656,2.4458160054346081
15.66,2.442238720250316
15.664,2.4328076956735458
15.668,2.4240270865848288
15.672,2.413620438775979
15.676,2.4064658684073947
15.68,2.404839829687262
15.684,2.4051650374312885
15.688,2.407766699383501
15.692,2.4158968929841649
15.696,2.422401047864696
15.7,2.425327917560935
15.704,2.4276043717691209
15.708,2.4272791640250944
15.712,2.4256531253049616
15.716,2.4184985549363773
15.72,2.4058154529193416
15.724,2.4035389987111557
15.728,2.4139456465200055
15.732,2.4162221007281914
15.736,2.4084171148715541
15.74,2.4035389987111557
15.744,2.4002869212708902
15.748,2.4035389987111557
15.752,2.4035389987111557
15.756,2.4009373367589433
15.76,2.4022381677350495
15.764,2.4074414916394744
15.768,2.4103683613357134
15.772,2.4142708542640321
15.776,2.4129700232879259
15.78,2.4038642064551823
15.784,2.3954088051104918
15.788,2.3856525727896951
15.792,2.3885794424859341
15.796,2.39085589669412
15.8,2.3905306889500935
15.804,2.3856525727896951
15.808,2.3911811044381466
15.812,2.39085589669412
15.816,2.3859777805337217
15.82,2.382075287605403
15.824,2.3807744566292968
15.828,2.3755711327248719
15.832,2.3648392771719955
15.836,2.3524813828989863
15.84,2.3479284744826145
15.844,2.3557334603392519
15.848,2.3719938475405797
15.852,2.376221548212925
15.856,2.3781727946770843
15.86,2.3752459249808453
15.864,2.3700426010764204
15.868,2.3628880307078362
15.872,2.3645140694279689
15.876,2.370367808820447
15.88,2.3719938475405797
15.884,2.3745955094927922
15.888,2.3713434320525266
15.892,2.3690669778443407
15.896,2.3697173933323938
15.9,2.3684165623562876
15.904,2.3648392771719955
15.908,2.3557334603392519
15.912,2.3502049286908004
15.916,2.3557334603392519
15.92,2.3573594990593847
15.924,2.3661401081481017
15.928,2.3671157313801814
15.932,2.3615871997317299
15.936,2.356383875827305
15.94,2.3586603300354909
15.944,2.3635384461958893
15.948,2.3658149004040752
15.952,2.3677661468682345
15.956,2.3654896926600486
15.96,2.3658149004040752
15.964,2.3641888616839424
15.968,2.3641888616839424
15.972,2.3706930165644735
15.976,2.373294678516686
15.98,2.3654896926600486
15.984,2.3567090835713316
15.988,2.3576847068034112
15.992,2.3697173933323938
15.996,2.3648392771719955
16,2.3586603300354909
16.004,2.3586603300354909
16.008,2.3628880307078362
16.012,2.3693921855883673
16.016,2.3784980024211109
16.02,2.3846769495576154
16.024,2.3788232101651374
16.028,2.3804492488852702
16.032,2.3801240411412437
16.036,2.382075287605403
16.04,2.3843517418135889
16.044,2.3892298579739872
16.048,2.3853273650456686
16.052,2.3840265340695623
16.056,2.3801240411412437
16.06,2.3824004953494295
16.064,2.3895550657180138
16.068,2.3941079741343856
16.072,2.3960592205985449
16.076,2.3921567276702262
16.08,2.3924819354142528
16.084,2.3947583896224387
16.088,2.3954088051104918
16.092,2.3924819354142528
16.096,2.3902054812060669
16.1,2.3876038192538545
16.104,2.3876038192538545
16.108,2.3859777805337217
16.112,2.3807744566292968
16.116,2.3810996643733233
16.12,2.3788232101651374
16.124,2.3739450940047391
16.128,2.3736198862607125
16.132,2.3775223791890312
16.136,2.3817500798613764
16.14,2.3837013263255358
16.144,2.3889046502299607
16.148,2.4009373367589433
16.152,2.413620438775979
16.156,2.4240270865848288
16.16,2.4347589421377052
16.164,2.4419135125062894
16.168,2.4419135125062894
16.172,2.4406126815301832
16.176,2.4376858118339442
16.18,2.425327917560935
16.184,2.4087423226155806
16.188,2.41069356907974
16.192,2.4129700232879259
16.196,2.4162221007281914
16.2,2.4211002168885898
16.204,2.4178481394483242
16.208,2.4211002168885898
16.212,2.4256531253049616
16.216,2.4318320724414662
16.22,2.434108526649652
16.224,2.4383362273219973
16.228,2.442238720250316
16.232,2.4425639279943425
16.236,2.4412630970182363
16.24,2.4347589421377052
16.244,2.4269539562810678
16.248,2.428254787257174
16.252,2.425327917560935
16.256,2.4197993859124836
16.26,2.4227262556087226
16.264,2.4487428751308471
16.268,2.4975240367348306
16.272,2.5833788811578415
16.276,2.6809412043658085
16.28,2.7996420309355017
16.284,2.9215949349454604
16.288,3.0136287265049759
16.292,3.0585073951806407
16.296,3.0162303884571884
16.3,2.7765522811096162
16.304,2.4432143434823956
16.308,2.1989833277184516
16.312,2.0962176806060597
16.316,2.0880874870053958
16.32,2.1241855465923436
16.324,2.1905279263737611
16.328,2.2640248765237629
16.332,2.3199606084963307
16.336,2.3674409391242079
16.34,2.4035389987111557
16.344,2.4207750091445632
16.348,2.4259783330489881
16.352,2.4347589421377052
16.356,2.4441899667144753
16.36,2.4490680828748737
16.364,2.4441899667144753
16.368,2.4399622660421301
16.372,2.4409378892742097
16.376,2.4432143434823956
16.38,2.448092459642794
16.384,2.4578486919635907
16.388,2.4624016003799625
16.392,2.4669545087963343
16.396,2.4643528468441218
16.4,2.4611007694038562
16.404,2.4594747306837235
16.408,2.4637024313560687
16.412,2.4682553397724405
16.416,2.4692309630045202
16.42,2.4705317939806264
16.424,2.4708570017246529
16.428,2.4744342869089451
16.432,2.4819140650215559
16.436,2.4861417656939011
16.44,2.4916702973423526
16.444,2.5017517374071758
16.448,2.5043533993593883
16.452,2.5092315155197866
16.456,2.5160608781443443
16.46,2.5196381633286364
16.464,2.5202885788166896
16.468,2.5235406562569551
16.472,2.5293943956494331
16.476,2.5375245892500971
16.48,2.5476060293149203
16.484,2.5622403777961154
16.488,2.5706957791408058
16.492,2.5898830360383727
16.496,2.6048425922635943
16.5,2.6155744478164706
16.504,2.6207777717208955
16.508,2.6279323420894798
16.512,2.6334608737379313
16.516,2.638013782154303
16.52,2.6370381589222234
16.524,2.6376885744102765
16.528,2.6373633666662499
16.532,2.6386641976423562
16.536,2.6406154441065155
16.54,2.6354121202020906
16.544,2.6285827575775329
16.548,2.6217533949529752
16.552,2.6067938387277536
16.556,2.591834282502532
16.56,2.5752486875571776
16.564,2.5502076912671328
16.568,2.5183373323525302
16.572,2.4923207128304057
16.576,2.4679301320284139
16.58,2.4503689138509799
16.584,2.4298808259773068
16.588,2.4080919071275275
16.592,2.3882542347419076
16.596,2.3726442630286328
16.6,2.3511805519228801
16.604,2.3404486963700037
16.608,2.3342697492334992
16.612,2.3251639324007556
16.616,2.3180093620321713
16.62,2.3154077000799589
16.624,2.318984985264251
16.628,2.324838724656729
16.632,2.3238631014246494
16.636,2.3176841542881448
16.64,2.3186597775202245
16.644,2.3206110239843838
16.648,2.3235378936806228
16.652,2.3222370627045166
16.656,2.3199606084963307
16.66,2.3209362317284103
16.664,2.3300420485611539
16.668,2.338822657649871
16.672,2.338822657649871
16.676,2.3420747350901365
16.68,2.3489040977146942
16.684,2.3557334603392519
16.688,2.3554082525952253
16.692,2.3612619919877034
16.696,2.3658149004040752
16.7,2.362237615219783
16.704,2.3586603300354909
16.708,2.3612619919877034
16.712,2.3654896926600486
16.716,2.3661401081481017
16.72,2.3625628229638096
16.724,2.3654896926600486
16.728,2.3687417701003142
16.732,2.3684165623562876
16.736,2.3632132384518627
16.74,2.3697173933323938
16.744,2.3794736256531905
16.748,2.3885794424859341
16.752,2.3970348438306246
16.756,2.3944331818784121
16.76,2.39085589669412
16.764,2.39085589669412
16.768,2.3931323509023059
16.772,2.39085589669412
16.776,2.3882542347419076
16.78,2.3872786115098279
16.784,2.3921567276702262
16.788,2.39085589669412
16.792,2.3941079741343856
16.796,2.3944331818784121
16.8,2.3915063121821731
16.804,2.387929026997881
16.808,2.3840265340695623
16.812,2.3866281960217748
16.816,2.3872786115098279
16.82,2.3882542347419076
16.824,2.3921567276702262
16.828,2.3963844283425715
16.832,2.3989860902947839
16.836,2.396709636086598
16.84,2.3983356748067308
16.844,2.3986608825507574
16.848,2.4009373367589433
16.852,2.3954088051104918
16.856,2.3957340128545184
16.86,2.3999617135268636
16.864,2.4080919071275275
16.868,2.4058154529193416
16.872,2.4012625445029698
16.876,2.4038642064551823
16.88,2.4061406606633682
16.884,2.4038642064551823
16.888,2.4126448155438993
16.892,2.4168725162162445
16.896,2.4152464774961118
16.9,2.4123196077998728
16.904,2.4178481394483242
16.908,2.4237018788408022
16.912,2.4246775020728819
16.916,2.4207750091445632
16.92,2.4178481394483242
16.924,2.4178481394483242
16.928,2.4227262556087226
16.932,2.4279295795131475
16.936,2.4263035407930147
16.94,2.4289052027452271
16.944,2.4305312414653599
16.948,2.4266287485370412
16.952,2.4240270865848288
16.956,2.4279295795131475
16.96,2.4458160054346081
16.964,2.4637024313560687
16.968,2.4760603256290779
16.972,2.4929711283184588
16.976,2.4994752831989899
16.98,2.4965484135027509
16.984,2.4897190508781932
16.988,2.4835401037416887
16.992,2.4861417656939011
16.996,2.5020769451512024
17,2.5121583852160256
17.004,2.5131340084481053
17.008,2.5157356704003178
17.012,2.5193129555846099
17.016,2.522890240768902
17.02,2.5274431491852738
17.024,2.5277683569293004
17.028,2.5365489660180174
17.032,2.5388254202262033
17.036,2.5378497969941236
17.04,2.5306952266255394
17.044,2.5280935646733269
17.048,2.5339473040658049
17.052,2.5329716808337253
17.056,2.5280935646733269
17.06,2.5222398252808489
17.064,2.5245162794890348
17.068,2.5134592161921319
17.072,2.5046786071034148
17.076,2.5115079697279725
17.08,2.5102071387518663
17.084,2.5098819310078397
17.088,2.5053290225914679
17.092,2.5059794380795211
17.096,2.508255892287707
17.1,2.4981744522228837
17.104,2.4874425966700073
17.108,2.4841905192297418
17.112,2.5030525683832821
17.116,2.5437035363866016
17.12,2.5778503495093901
17.124,2.5817528424377088
17.128,2.5716714023728855
17.132,2.5599639235879295
17.136,2.542727913154522
17.14,2.5303700188815128
17.144,2.5225650330248754
17.148,2.5196381633286364
17.152,2.5176869168644771
17.156,2.5144348394242115
17.16,2.5076054767996538
17.164,2.5014265296631493
17.168,2.4877678044140339
17.172,2.4802880263014231
17.176,2.4806132340454496
17.18,2.4776863643492106
17.184,2.4724830404447857
17.188,2.4773611566051841
17.192,2.476710741117131
17.196,2.4841905192297418
17.2,2.4890686353901401
17.204,2.4897190508781932
17.208,2.4936215438065119
17.212,2.5050038148474414
17.216,2.5076054767996538
17.22,2.497198828990804
17.224,2.4754099101410247
17.228,2.4659788855642546
17.232,2.4633772236120421
17.236,2.4575234842195641
17.24,2.451019329339033
17.244,2.4519949525711127
17.248,2.4558974454994313
17.252,2.4607755616598297
17.256,2.4584991074516438
17.26,2.4653284700762015
17.264,2.4728082481888123
17.268,2.4715074172127061
17.272,2.4711822094686795
17.276,2.4747594946529716
17.28,2.4819140650215559
17.284,2.4903694663662463
17.288,2.4916702973423526
17.292,2.4923207128304057
17.296,2.4962232057587244
17.3,2.5014265296631493
17.304,2.5037029838713352
17.308,2.5176869168644771
17.312,2.5446791596186813
17.316,2.5999644761031959
17.32,2.6789899579016492
17.324,2.781105189525988
17.328,2.9001312238397077
17.332,3.0194824658974539
17.336,3.0968819089757744
17.34,3.1333051763067488
17.344,3.08029631403042
17.348,2.8458215305872727
17.352,2.5502076912671328
17.356,2.3550830448511988
17.36,2.2861390031175688
17.364,2.2900414960458875
17.368,2.32191185496049
17.372,2.3872786115098279
17.376,2.4493932906189002
17.38,2.5069550613116007
17.384,2.5567118461476639
17.388,2.5902082437823992
17.392,2.6090702929359395
17.396,2.6227290181850549
17.4,2.6295583808096126
17.404,2.6298835885536391
17.408,2.6243550569051877
17.412,2.6282575498335063
17.416,2.6373633666662499
17.42,2.6432171060587279
17.424,2.649070845451206
17.428,2.6542741693556309
17.432,2.6620791552122682
17.436,2.6689085178368259
17.44,2.6783395424135961
17.444,2.6874453592463396
17.448,2.689396605710499
17.452,2.6854941127821803
17.456,2.6786647501576226
17.46,2.6799655811337288
17.464,2.6841932818060741
17.468,2.6910226444306318
17.472,2.6936243063828442
17.476,2.6919982676627114
17.48,2.6919982676627114
17.484,2.7014292922394816
17.488,2.7170392639527563
17.492,2.732649235666031
17.496,2.7492348306113854
17.5,2.7515112848195713
17.504,2.7586658551881555
17.508,2.7677716720208991
17.512,2.7713489572051913
17.516,2.7736254114133772
17.52,2.7768774888536427
17.524,2.7817556050140411
17.528,2.7902110063587315
17.532,2.798666407703422
17.536,2.8022436928877141
17.54,2.8058209780720063
17.544,2.8090730555122718
17.548,2.8175284568569623
17.552,2.8237074039934669
17.556,2.8220813652733341
17.56,2.8201301188091747
17.564,2.8207805342972279
17.568,2.8224065730173606
17.572,2.8217561575293075
17.576,2.8227317807613872
17.58,2.8152520026487764
17.584,2.8058209780720063
17.588,2.7963899534952361
17.592,2.7902110063587315
17.596,2.7830564359901473
17.6,2.7661456333007663
17.604,2.7456575454270933
17.608,2.7300475737138186
17.612,2.7102099013281986
17.616,2.6913478521746583
17.62,2.6585018700279761
17.624,2.620452563976869
17.628,2.5905334515264258
17.632,2.5615899623080622
17.636,2.5339473040658049
17.64,2.5202885788166896
17.644,2.5202885788166896
17.648,2.5105323464958929
17.652,2.4871173889259808
17.656,2.4640276391000953
17.66,2.4591495229396969
17.664,2.4637024313560687
17.668,2.4669545087963343
17.672,2.4666293010523077
17.676,2.4633772236120421
17.68,2.4581738997076172
17.684,2.4529705758031923
17.688,2.4516697448270861
17.692,2.4532957835472189
17.696,2.4454907976905815
17.7,2.4315068646974396
17.704,2.4220758401206695
17.708,2.4184985549363773
17.712,2.4175229317042977
17.716,2.4103683613357134
17.72,2.3957340128545184
17.724,2.3830509108374827
17.728,2.3810996643733233
17.732,2.3999617135268636
17.736,2.4233766710967757
17.74,2.4406126815301832
17.744,2.4471168364107143
17.748,2.4328076956735458
17.752,2.4035389987111557
17.756,2.3853273650456686
17.76,2.3824004953494295
17.764,2.3778475869330578
17.768,2.3710182243085001
17.772,2.3641888616839424
17.776,2.3547578371071722
17.78,2.347603266738588
17.784,2.3459772280184552
17.788,2.3463024357624818
17.792,2.3453268125304021
17.796,2.3329689182573929
17.8,2.3245135169127025
17.804,2.3137816613598261
17.808,2.3050010522711091
17.812,2.2991473128786311
17.816,2.287439834093675
17.82,2.2718298623804003
17.824,2.2493905280425679
17.828,2.2328049330972135
17.832,2.2178453768719919
17.836,2.2090647677832749
17.84,2.20386144387885
17.844,2.1983329122303985
17.848,2.1915035496058408
17.852,2.1804464863089379
17.856,2.1645113068516366
17.86,2.1619096448994242
17.864,2.1606088139233179
17.868,2.1580071519711055
17.872,2.1570315287390258
17.876,2.1612592294113711
17.88,2.1651617223396897
17.884,2.1680885920359287
17.888,2.1791456553328317
17.892,2.1836985637492035
17.896,2.1863002257014159
17.9,2.1804464863089379
17.904,2.1729667081963271
17.908,2.1762187856365927
17.912,2.1784952398447786
17.916,2.1778448243567254
17.92,2.1758935778925661
17.924,2.1788204475888051
17.928,2.1820725250290707
17.932,2.178170032100752
17.936,2.1755683701485395
17.94,2.1742675391724333
17.944,2.1794708630768582
17.948,2.1814221095410176
17.952,2.1729667081963271
17.956,2.1690642152680084
17.96,2.1690642152680084
17.964,2.1732919159403536
17.968,2.181096901796991
17.972,2.1836985637492035
17.976,2.1843489792372566
17.98,2.1853246024693362
17.984,2.1876010566775221
17.988,2.1882514721655753
17.992,2.1905279263737611
17.996,2.1918287573498674
18,2.1944304193020798
18.004,2.1931295883259736
18.008,2.1950808347901329
18.012,2.1976824967423454
18.016,2.1944304193020798
18.02,2.1993085354624782
18.024,2.2106908065034077
18.028,2.2142680916876998
18.032,2.2136176761996467
18.036,2.2071135213191155
18.04,2.2048370671109296
18.044,2.2084143522952218
18.048,2.2113412219914608
18.052,2.2093899755273014
18.056,2.206788313575089
18.06,2.2113412219914608
18.064,2.2168697536399122
18.068,2.209715183271328
18.072,2.2035362361348234
18.076,2.2110160142474342
18.08,2.2145932994317263
18.084,2.209715183271328
18.088,2.2058126903430093
18.092,2.2080891445511952
18.096,2.2071135213191155
18.1,2.2110160142474342
18.104,2.2178453768719919
18.108,2.2227234930323903
18.112,2.2295528556569479
18.116,2.2347561795613728
18.12,2.2295528556569479
18.124,2.2305284788890276
18.128,2.2259755704726558
18.132,2.2227234930323903
18.136,2.2230487007764168
18.14,2.2204470388242044
18.144,2.2204470388242044
18.148,2.2357318027934525
18.152,2.2428863731620368
18.156,2.2406099189538509
18.16,2.2373578415135853
18.164,2.238333464745665
18.168,2.2419107499299571
18.172,2.2487401125545148
18.176,2.2597971758514177
18.18,2.27280548561248
18.184,2.2877650418377016
18.188,2.2949196122062858
18.192,2.2965456509264186
18.196,2.2936187812301796
18.2,2.2916675347660203
18.204,2.2919927425100468
18.208,2.2906919115339406
18.212,2.2867894186056219
18.216,2.2913423270219937
18.22,2.290366703789914
18.224,2.2900414960458875
18.228,2.2851633798854891
18.232,2.2848381721414626
18.236,2.2867894186056219
18.24,2.2884154573257547
18.244,2.290366703789914
18.248,2.2942691967182327
18.252,2.2923179502540734
18.256,2.2861390031175688
18.26,2.2949196122062858
18.264,2.3010985593427904
18.268,2.2984968973905779
18.272,2.2984968973905779
18.276,2.3027245980629232
18.28,2.3037002212950028
18.284,2.3128060381277464
18.288,2.3570342913153581
18.292,2.4308564492093865
18.296,2.5189877478405833
18.3,2.6432171060587279
18.304,2.7772026965976693
18.308,2.8926514457270969
18.312,2.965172772645019
18.316,2.945335100259399
18.32,2.7339500666421372
18.324,2.3999617135268636
18.328,2.1258115853124764
18.332,1.9875982941011898
18.336,1.9648337520193309
18.34,2.0035334735584911
18.344,2.0711766843160149
18.348,2.1472752964182291
18.352,2.2289024401688948
18.356,2.2975212741584983
18.36,2.3410991118580569
18.364,2.3576847068034112
18.368,2.3606115764996503
18.372,2.3609367842436768
18.376,2.3648392771719955
18.38,2.3726442630286328
18.384,2.3781727946770843
18.388,2.3840265340695623
18.392,2.3915063121821731
18.396,2.3963844283425715
18.4,2.4012625445029698
18.404,2.4149212697520852
18.408,2.4233766710967757
18.412,2.419474178168457
18.416,2.4080919071275275
18.42,2.4051650374312885
18.424,2.4129700232879259
18.428,2.4142708542640321
18.432,2.4145960620080587
18.436,2.416547308472218
18.44,2.4246775020728819
18.444,2.4344337343936786
18.448,2.4464664209226612
18.452,2.4519949525711127
18.456,2.4630520158680156
18.46,2.4721578327007592
18.464,2.4776863643492106
18.468,2.4858165579498746
18.472,2.4968736212467775
18.476,2.5076054767996538
18.48,2.5193129555846099
18.484,2.5326464730896987
18.488,2.5450043673627079
18.492,2.5599639235879295
18.496,2.5752486875571776
18.5,2.5843545043899212
18.504,2.5960619831748772
18.508,2.6152492400724441
18.512,2.6354121202020906
18.516,2.6539489616116043
18.52,2.6754126727173571
18.524,2.6959007605910301
18.528,2.7115107323043048
18.532,2.7225677956012078
18.536,2.7310231969458982
18.54,2.7476087918912526
18.544,2.7667960487888195
18.548,2.7680968797649257
18.552,2.7645195945806336
18.556,2.761267517140368
18.56,2.7609423093963414
18.564,2.7687472952529788
18.568,2.7563894009799697
18.572,2.7404542215226684
18.576,2.7264702885295264
18.58,2.704030954191694
18.584,2.6796403733897023
18.588,2.6493960531952325
18.592,2.6123223703762051
18.596,2.5814276346936822
18.6,2.560289131331956
18.604,2.5446791596186813
18.608,2.5189877478405833
18.612,2.485491350205848
18.616,2.453946199035272
18.62,2.4406126815301832
18.624,2.4383362273219973
18.628,2.4370353963458911
18.632,2.4386614350660238
18.636,2.4308564492093865
18.64,2.4308564492093865
18.644,2.4367101886018645
18.648,2.4376858118339442
18.652,2.4376858118339442
18.656,2.4302060337213334
18.66,2.4243522943288554
18.664,2.4230514633527491
18.668,2.4175229317042977
18.672,2.4025633754790761
18.676,2.4103683613357134
18.68,2.4191489704244304
18.684,2.4171977239602711
18.688,2.416547308472218
18.692,2.4175229317042977
18.696,2.4152464774961118
18.7,2.4090675303596072
18.704,2.4113439845677931
18.708,2.4162221007281914
18.712,2.4250027098169085
18.716,2.422401047864696
18.72,2.4204498014005367
18.724,2.4256531253049616
18.728,2.4318320724414662
18.732,2.425327917560935
18.736,2.4227262556087226
18.74,2.4295556182332803
18.744,2.4318320724414662
18.748,2.4240270865848288
18.752,2.4155716852401383
18.756,2.4230514633527491
18.76,2.4318320724414662
18.764,2.4370353963458911
18.768,2.445165589946555
18.772,2.4500437061069533
18.776,2.442238720250316
18.78,2.4308564492093865
18.784,2.4220758401206695
18.788,2.4116691923118196
18.792,2.4097179458476603
18.796,2.4158968929841649
18.8,2.4175229317042977
18.804,2.413620438775979
18.808,2.4087423226155806
18.812,2.4074414916394744
18.816,2.4012625445029698
18.82,2.3898802734620403
18.824,2.3856525727896951
18.828,2.382075287605403
18.832,2.3801240411412437
18.836,2.370367808820447
18.84,2.3576847068034112
18.844,2.3557334603392519
18.848,2.3466276435065083
18.852,2.3319932950253133
18.856,2.3349201647215523
18.86,2.3394730731379241
18.864,2.344676397042349
18.868,2.3463024357624818
18.872,2.3518309674109332
18.876,2.3482536822266411
18.88,2.3498797209467739
18.884,2.3550830448511988
18.888,2.3586603300354909
18.892,2.3612619919877034
18.896,2.365164484916022
18.9,2.3606115764996503
18.904,2.3560586680832785
18.908,2.3583351222914644
18.912,2.3580099145474378
18.916,2.3599611610115971
18.92,2.3625628229638096
18.924,2.3635384461958893
18.928,2.3645140694279689
18.932,2.3710182243085001
18.936,2.3641888616839424
18.94,2.3580099145474378
18.944,2.3550830448511988
18.948,2.3518309674109332
18.952,2.3550830448511988
18.956,2.356383875827305
18.96,2.356383875827305
18.964,2.3459772280184552
18.968,2.3414243196020834
18.972,2.3342697492334992
18.976,2.3316680872812867
18.98,2.3323185027693398
18.984,2.3316680872812867
18.988,2.3316680872812867
18.992,2.3342697492334992
18.996,2.3316680872812867
19,2.3293916330731008
19.004,2.3241883091686759
19.008,2.3154077000799589
19.012,2.3128060381277464
19.016,2.310204376175534
19.02,2.3033750135509763
19.024,2.2991473128786311
19.028,2.2988221051346045
19.032,2.2991473128786311
19.036,2.3004481438547373
19.04,2.2994725206226576
19.044,2.3010985593427904
19.048,2.3023993903188966
19.052,2.3017489748308435
19.056,2.3092287529434543
19.06,2.3111799994076136
19.064,2.3118304148956668
19.068,2.3092287529434543
19.072,2.3098791684315074
19.076,2.313131245871773
19.08,2.3215866472164635
19.084,2.3433755660662428
19.088,2.3700426010764204
19.092,2.3895550657180138
