-0.00296464131361683
-0.00502301678844734
-0.00692857279413484
-0.00855191132347496
-0.0098064564729401
-0.0106601108496839
-0.0111398513454058
-0.0113314181333334
-0.0113759782533869
-0.0114626795747311
-0.0118128211476051
-0.0126512271664981
-0.0141647480750729
-0.0164549615901262
-0.0194983863818999
-0.0231293163598916
-0.0270561924946429
-0.0309132695208871
-0.0343382706143446
-0.0370576299031669
-0.0389569407976693
-0.0401166436199269
-0.0408011295436855
-0.0414013122821175
-0.0423435459755062
-0.0439881848062906
-0.0465455395834201
-0.0500329367816872
-0.0542841652830426
-0.0590056156258095
-0.0638582882173007
-0.0685375058376003
-0.0728249888253746
-0.0765990198277293
-0.0798033422214893
-0.0823896101119011
-0.0842577941906468
-0.0852209258857361
-0.0850134540441572
-0.0833477501039904
-0.0800057334124354
-0.0749386662987672
-0.068343080338538
-0.0606861377503801
-0.0526670978718682
-0.0451180663807877
-0.038861912960937
-0.0345549505377829
-0.0325455576850683
-0.032777696452253
-0.0347612702692741
-0.0376209689150578
-0.0402234242229226
-0.0413707456491896
-0.0400375811735971
-0.0356185539689493
-0.0281431800897146
-0.0184079299895316
-0.00797416457262842
0.00100857582999458
0.00616870987187226
0.00544311839850093
-0.00230119741148178
-0.0166741012932098
-0.0353503734241509
-0.053996657839114
-0.066661624914626
-0.0666752321335411
-0.0479848501788984
-0.00671900137467482
0.0573509514872175
0.139842277888264
0.231643371191214
0.319862301793357
0.389820008607161
0.427785243079647
0.423896114628351
0.374573133653702
0.283767858982899
0.162631003958711
0.0275779790530216
-0.102834295270758
-0.211472340035647
-0.285772330875276
-0.319749109529927
-0.314487844923628
-0.277150218597658
-0.218882398222327
-0.152219802441434
-0.0886128348193943
-0.0365725901022793
-0.000715316434148319
0.0182601512667323
0.0228345444997566
0.0174708654776308
0.0072948699734907
-0.00305451891522898
-0.0102115149199999
-0.0124315470952712
-0.00953327114733337
-0.00254159515493986
0.00682657548605516
0.0166946126124911
0.0254663187956107
0.0321069244473255
0.036243607683552
0.038104118284876
0.038340767012594
0.0378015576324818
0.0373098725475824
0.037500670735911
0.0387390874171377
0.0411228861044125
0.0445495472018906
0.0488161989440033
0.0537179516920941
0.0591169971415314
0.0649684313677725
0.071304613264355
0.0781926625802642
0.0856854224108699
0.0937839400418306
0.102421552751362
0.111470035417293
0.120760838048929
0.130111418478313
0.139347929189327
0.148319103125597
0.156899846780992
0.164985554623537
0.172479480092447
0.179276130572189
0.185243953678015
0.190210600180907
0.193953718570837
0.196199591802671
0.19663112688682
0.194905889319302
0.190684037779654
0.183665041094451
0.173630754020762
0.160490579824292
0.144322080565285
0.125398198031046
0.104191719361251
0.0813504167992796
0.0576428511043846
0.0338833258563243
0.0108512965480746
-0.0107777021476415
-0.0304768440223424
-0.0478840933780465
-0.0627937883488821
-0.07513345747736
-0.0849366522039645
-0.0923199585118043
-0.0974679349965908
-0.100625191163742
-0.102091226272094
-0.102211802661644
-0.101361358883643
-0.0999146116574186
-0.0982109683912969
-0.0965200551837284
-0.0950177692413074
-0.093778834338161
-0.092785680001625
-0.0919480717915696
-0.0911261445309694
-0.0901517010043475
-0.0888466585207668
-0.0870403486267802
-0.0845873556019643
-0.0813854203074296
-0.0773907795043383
-0.0726278549004439
-0.0671915256874251
-0.0612421073763765
-0.0549943257692077
-0.0487015086679161
-0.0426353078864152
-0.0370604788909097
-0.0322046556027488
-0.0282252001569233
-0.0251785205557614
-0.023000121166371
-0.021504241162668
-0.0204091833167692
-0.0193885270952023
-0.0181406488582986
-0.0164614631197092
-0.014300788663369
-0.0117839366929102
-0.00918827020048626
-0.00687790828670295
-0.00521368635573052
-0.00446408841270945
-0.00474237507555729
-0.00598597868517423
-0.00798055917957547
-0.010418202313951
-0.0129710780425385
-0.0153601062341551
-0.0174022620918309
-0.0190280062253464
-0.0202691679098475
-0.021224933379016
-0.0220178110501126
-0.0227520684537017
-0.0234846063944256
-0.024213696540737
-0.0248859406095165
-0.0254175299076818
-0.0257231218427275
-0.025744529870203
-0.0254718657171893
-0.0249517957802015
-0.0242810114812794
-0.0235869838595132
-0.023001089032461
-0.02263012773992
-0.0225312652476363
-0.0226938067764736
-0.0230304085110286
-0.0233805842551192
-0.0235294606914213
-0.0232428345165839
-0.0223150076532654
-0.0206201260717398
-0.0181538131463226
-0.0150522827047423
-0.0115812580260513
-0.00809511329131007
-0.00497481744240004
-0.00255888048028559
-0.00108305223258501
-0.000641858319812722
-0.00117929521655933
-0.00250901479462117
-0.00435796980829146
-0.00642302541548953
-0.0084280403071317
-0.0101695372337271
-0.0115421822060763
-0.012540284852287
-0.0132372867390857
-0.0137503389463255
-0.0142003795791718
-0.0146787809082365
-0.015229313259371
-0.0158493135145671
-0.0165079714083944
-0.0171745606447183
-0.0178468694790025
-0.0185704854529869
-0.0194423401868094
-0.0205961081924753
-0.0221720001929142
-0.0242784121717351
-0.026956326360096
-0.0301575358806158
-0.033743896305766
-0.0375080410613778
-0.0412090298650108
-0.0446121318198159
-0.0475220797541946
-0.0498033513328469
-0.0513871581383296
-0.0522699925427034
-0.0525106916496647
-0.0522314149365923
-0.0516234305403244
-0.0509529095702392
-0.0505575057313248
-0.0508237538717355
-0.0521393275033447
-0.0548219836969018
-0.0590360765787921
-0.0647148273065571
-0.071509499091677
-0.0787838479494551
-0.0856641449460623
-0.0911437938848429
-0.0942297863935711
-0.0941082320805455
-0.0902997526291814
-0.0827742430262093
-0.0719996764859499
-0.0589113127503949
-0.0448035983783495
-0.0311626858218441
-0.0194679327887328
-0.0109934381778006
-0.00663674403058552
-0.00679464647850146
-0.0112986417677638
-0.0194163179496667
-0.0299203050714203
-0.0412230325615882
-0.051572542953866
-0.0592998321075163
-0.0630990304846479
-0.0623070494692386
-0.0571313754344123
-0.0487600538653583
-0.0392860721554767
-0.03139815348048
-0.0278348154306442
-0.0306629158231934
-0.0405113082447116
-0.0559446848664459
-0.0731820210156461
-0.0863329995462735
-0.0882385087582862
-0.0718653861863556
-0.0320449020772362
0.0328019180223297
0.119394130929691
0.219199749985976
0.319205133393562
0.403872646892674
0.458000907809007
0.469911250014929
0.434209542818479
0.353389468867814
0.237778434321205
0.103736834180941
-0.0295078201256557
-0.143629457924949
-0.224652457521227
-0.265274207392248
-0.265597100414857
-0.232251007465094
-0.176288923115813
-0.110485832454881
-0.0467191210820022
0.00602042504825019
0.0426781221172257
0.0622048655255314
0.0668302966727247
0.0608583122176036
0.0493368934940522
0.0369017476514627
0.0269874730015088
0.021477461730695
0.0207554471957445
0.0240474001296134
0.0299098556258825
0.0367263516577335
0.043106830476303
0.0481318403574389
0.0514309810818552
0.0531231182672535
0.0536685669045955
0.0536893083905215
0.0538049309732713
0.0545147733303277
0.0561372474595025
0.058801289152313
0.0624756654042572
0.0670196109804441
0.0722406483167044
0.0779494342132273
0.0840049027640454
0.0903450543197779
0.096999837845312
0.104083758525534
0.111768279612124
0.120238146348071
0.129640371310168
0.140037663864703
0.151377688678174
0.163485258731851
0.176077727952586
0.188797058298764
0.201248111731201
0.213033169561753
0.223776646879441
0.233138723417252
0.240819506962774
0.246555558639527
0.250109424263733
0.25125255797513
0.249744407407703
0.245315097856916
0.237663382504487
0.226481662328741
0.211513728424627
0.192639371569434
0.16996711753275
0.143907529954742
0.11519937612241
0.0848709761944212
0.0541365219133022
0.0242460113895385
-0.00367893462549841
-0.0287870529019497
-0.0505869896830481
-0.0689678003722535
-0.0841504939767877
-0.0965859619441232
-0.106824798066084
-0.115387948418081
-0.122664316478598
-0.128854117229413
-0.133966609681454
-0.137869119249451
-0.140372577654314
-0.14132966780946
-0.140718026161885
-0.138684864297667
-0.135540559379248
-0.13170414886281
-0.1276181754672
-0.123658859636038
-0.120067228597157
-0.116918228972828
-0.11413178111814
-0.111517310699828
-0.108835686890264
-0.105861360608394
-0.102431691036994
-0.0984770242038729
-0.0940309513697794
-0.0892235666873637
-0.0842615533778904
-0.0793988638201804
-0.074901883280707
-0.0710135514869712
-0.0679213096364314
-0.065733224659926
-0.0644651533825135
-0.0640399113319157
-0.0642977854388517
-0.065016718307142
-0.0659399242965458
-0.0668080885065953
-0.0673924076679052
-0.0675240094007559
-0.0671155404379131
-0.0661721380653548
-0.064790731949056
-0.0631475995232303
-0.06147429816125
-0.0600226351580015
-0.059021222366746
-0.0586292250304246
-0.0588959398257489
-0.0597363765935407
-0.0609319419332294
-0.0621610895686818
-0.06305780601751
-0.063287654750029
-0.0626243924469575
-0.0610075219802349
-0.0585640737328177
-0.0555861636397532
-0.052467528385371
-0.0496140891033808
-0.0473518391892283
-0.0458567930891596
-0.0451253509200784
-0.0449912146339234
-0.0451812508792471
-0.0453922476059612
-0.0453666479399237
-0.0449485421949559
-0.0441091816799288
-0.0429404446253041
-0.0416219918933094
-0.0403719591555125
-0.039392257231407
-0.0388190295195959
-0.038687500455065
-0.0389184324296624
-0.039330003452172
-0.0396736151022316
-0.0396857539400835
-0.0391429176869629
-0.0379054640626037
-0.0359401658879824
-0.033318796322442
-0.0301978848554146
-0.0267895263009026
-0.0233331188674627
-0.0200737743492855
-0.017247233499071
-0.0150663161224576
-0.0137025542523536
-0.0132596986711308
-0.0137423655203465
-0.0150302470923696
-0.016872007688088
-0.0189102451782412
-0.0207397419479233
-0.0219889124574273
-0.0224038891538067
-0.0219106473587806
-0.0206351172781998
-0.0188730834710558
-0.0170166305929749
-0.0154568209229093
-0.014489256849723
-0.0142485078822001
-0.0146894750898561
-0.0156205926611977
-0.0167784538268893
-0.0179199639276563
-0.0189007917084722
-0.0197113398084571
-0.0204547305368836
-0.0212720651729898
-0.0222409990988015
-0.0232860060498956
-0.024137279017585
-0.0243602876539297
-0.0234548240108886
-0.0209987635158701
-0.0167955745253381
-0.0109812956200853
-0.00405740160684588
0.00316321801661327
0.00968644839207011
0.0145139697878667
0.0168287772246182
0.016152356282814
0.0124462283561891
0.00614373380488716
-0.00189016561330948
-0.0104656623423826
-0.0182323742158273
-0.023888971070143
-0.0264198266774218
-0.0253297346551423
-0.02083501847803
-0.0139596968063758
-0.00648463308586059
-0.000710717097773436
0.000973280003411307
-0.00331755178296058
-0.0143032260903286
-0.0309510516555011
-0.0501365929956907
-0.0667244099374308
-0.0741836830952488
-0.0657446083005096
-0.0359544447739605
0.0176589063307793
0.093217071381634
0.183838185832957
0.278028704023408
0.361236708063678
0.418393162289427
0.436969151320896
0.409859758708638
0.337352121946881
0.227593338818794
0.0953268798021775
-0.0408758847768149
-0.162242209424075
-0.253396870296367
-0.305073015718391
-0.315348664158238
-0.289242526520896
-0.236927081227156
-0.171122274876524
-0.104352792605437
-0.0466833090885016
-0.00433878580054743
0.0206526547960048
0.0299102634540804
0.0275391086302394
0.0187263054398387
0.00844066837792854
0.000484792163982856
-0.0029820743316306
-0.00145934502895611
0.00423579749735471
0.0125078734555529
0.0215569980007158
0.0298532668228127
0.0364302277009736
0.0409747400932315
0.043741388625357
0.0453532085096899
0.0465628795397503
0.0480410479181888
0.0502367010549091
0.0533269360033173
0.0572484247390051
0.0617859169165609
0.0666856316853607
0.0717617754719902
0.0769703744550543
0.0824345056719073
0.0884175419182652
0.0952540499749328
0.103258230914848
0.11263412866656
0.123409172929079
0.135404775641275
0.148248170166281
0.161421386667956
0.174337236368704
0.186428161230764
0.197231514157962
0.206454577768644
0.214005040477624
0.219978195866296
0.224600675799847
0.228140817878417
0.230805186040863
0.232646011096752
0.233503047921372
0.232995582050338
0.230568453479686
0.22558343255531
0.217437109887898
0.205680656076239
0.19011645381829
0.170851963449469
0.148301358883659
0.123138035297652
0.0962123901817395
0.0684557264004221
0.0407908175036949
0.0140632978276279
-0.0110014840776782
-0.0338203098862989
-0.0539616304922641
-0.071151365915299
-0.0852789740522409
-0.0964019890272979
-0.104743179913524
-0.110673815416542
-0.114679042468914
-0.117305718376174
-0.119097607215853
-0.12052654997664
-0.121930514627122
-0.123470081537493
-0.125113545269468
-0.126656898383925
-0.127778457532826
-0.128119862803914
-0.127377742367838
-0.12538588278247
-0.122168078603653
-0.11794751418223
-0.113108556661708
-0.108118785424221
-0.103429741339391
-0.0993811372821302
-0.09613295776271
-0.0936425835139386
-0.091691743374959
-0.0899546326615465
-0.0880882515094028
-0.0858217262930366
-0.0830235152948834
-0.0797324272327985
-0.076147760845763
-0.0725829622396355
-0.0693940506556892
-0.066898005452135
-0.0652976617334246
-0.0646287496806323
-0.0647412718411017
-0.0653211683088941
-0.0659498059077193
-0.0661899603642563
-0.0656798720199338
-0.0642137427387375
-0.0617891099292168
-0.0586089882217866
-0.0550378978534957
-0.051522811812046
-0.0484990338340765
-0.0463041814860628
-0.0451197599179169
-0.0449506698226133
-0.0456418582049614
-0.0469222903830166
-0.0484623286729838
-0.0499317299597
-0.0510496966435801
-0.0516226606687175
-0.0515675774772821
-0.0509183672665298
-0.0498126416714079
-0.0484574466023267
-0.0470775529844548
-0.0458564568958248
-0.0448853774089414
-0.044135859619689
-0.0434658501012342
-0.0426589081955762
-0.0414853224630803
-0.0397666446792634
-0.0374244899990442
-0.0345005367850837
-0.0311447605775773
-0.0275788441770399
-0.0240477891594838
-0.0207734942770478
-0.0179203704871106
-0.0155773748371489
-0.0137557016219963
-0.0123982972802242
-0.011396613040267
-0.0106108911886483
-0.00989171888206742
-0.00910163366180492
-0.00813581705301082
-0.00694051294467489
-0.00552705160586334
-0.00397839328945632
-0.00244426735843259
-0.00112132516418034
-0.000217575569806416
9.4134604189842e-05
-0.000277232516166144
-0.00130817519858912
-0.00285375925553226
-0.00467127395964657
-0.00646971849899534
-0.00797250172319254
-0.00897708352117402
-0.00939664252735408
-0.00927425449698097
-0.00876756587334659
-0.00810937083600967
-0.00755497633077516
-0.00732955075912599
-0.00758741172155152
-0.00839093733513683
-0.00971087934235334
-0.0114442387028957
-0.0134422788956074
-0.0155405575079366
-0.0175847406622255
-0.019449166549022
-0.021048089174237
-0.0223412398147949
-0.0233356809367266
-0.0240852420879803
-0.0246872915502568
-0.0252744079917989
-0.0259967042652464
-0.0269910137980065
-0.0283372787879954
-0.0300096295925177
-0.0318368708803378
-0.0334904412095404
-0.03451441599391
-0.0344014718511232
-0.0327038626253319
-0.0291546325485655
-0.0237670032904183
-0.0168825321060514
-0.0091509856952395
-0.00144283887065397
0.00528735242033425
0.0101573970330198
0.0125023925326916
0.0119829344632313
0.00864233087548504
0.00290992657952191
-0.0044440991078355
-0.012393760127035
-0.0197744815368758
-0.0254276911444363
-0.0283686997675936
-0.0279690425201494
-0.0241332683805243
-0.0174352723648324
-0.00916673187349379
-0.00124742626708421
0.00403971582679365
0.00449446210004859
-0.00141604667041072
-0.013931522406195
-0.0314790393434096
-0.0504328312571529
-0.065310575888008
-0.0694959672243655
-0.0564617761222763
-0.0213239288608727
0.0375796005130499
0.117478385945758
0.210719388132119
0.305356489631202
0.386842378329397
0.440604288523609
0.455009794371885
0.424044570677412
0.349006152161296
0.238702208703772
0.108001249421977
-0.0249779236617603
-0.142373599074035
-0.229933323955149
-0.279425337092054
-0.28961322923342
-0.265701971510999
-0.217548106268182
-0.157184637819249
-0.0962917892799554
-0.0441579353335523
-0.00647336727567401
0.0149455362302752
0.0216252622494276
0.0173702841218861
0.0069949281131002
-0.00484574511858624
-0.0145124374835522
-0.0198267504857733
-0.0201151193508438
-0.0159418795844327
-0.00866295077506533
6.50615188953168e-05
0.00871075702092056
0.0161599848325674
0.0218489428750241
0.0257506159884765
0.0282525903992276
0.0299767447708637
0.0315913904255976
0.0336567195857388
0.0365286598104345
0.0403286605321863
0.0449714160339613
0.050231857669096
0.0558283999890632
0.0615013506515548
0.0670718167513815
0.072474360564112
0.0777632988597836
0.0830966562642723
0.088703693946357
0.094842548709103
0.10175448187261
0.109620808597015
0.118527887031677
0.128444687474723
0.139216303539995
0.15057489190546
0.162166608356444
0.173589473160229
0.184433904464488
0.194316395290533
0.202898432598579
0.209887068635228
0.215019271054221
0.218037545678628
0.218667794827706
0.216610935177746
0.211557015816902
0.203224655392407
0.191420655228468
0.17610676484634
0.157455537445697
0.135877446225877
0.112007801803286
0.0866529327843019
0.0607067891103244
0.0350572459760675
0.0105030374352098
-0.0123028555512096
-0.0328772692905666
-0.0509029878748153
-0.0662092401053468
-0.0787506782923601
-0.0885945789499319
-0.0959178614925841
-0.101007471472313
-0.104253167800837
-0.106122545508371
-0.107113897804622
-0.107691204837497
-0.10821410598406
-0.108881092591014
-0.109703986760119
-0.110525122875368
-0.111076755408033
-0.111068646387403
-0.110279430545238
-0.108624492465849
-0.106179552600521
-0.10315340453121
-0.0998205034216096
-0.0964378251203902
-0.0931750561110211
-0.0900810597594809
-0.0870956516020787
-0.0840996965457705
-0.0809840492595386
-0.0777126312897378
-0.0743580767642412
-0.0710982964003307
-0.0681754002247585
-0.0658303820757636
-0.0642341968126697
-0.063436371999528
-0.063346152471009
-0.0637505184314008
-0.0643619836772228
-0.0648809448931418
-0.0650551689390681
-0.0647228007494495
-0.0638326238267208
-0.0624426896900327
-0.0607030097184632
-0.0588288814388274
-0.0570696798692561
-0.0556754820879721
-0.0548622454836281
-0.05477627437352
-0.0554606807155332
-0.0568299589659897
-0.0586618339095683
-0.0606154584842281
-0.0622799103468712
-0.0632475397074671
-0.0631967283371939
-0.0619627174826873
-0.059576504745023
-0.0562603810174148
-0.0523812673318488
-0.0483747594627502
-0.0446595908872756
-0.0415625601396622
-0.0392689832312397
-0.0378059137314129
-0.0370572415205713
-0.0368033559628113
-0.0367746012197369
-0.0367073405652252
-0.0363929601036814
-0.0357121574964296
-0.0346488505164404
-0.0332807092496432
-0.0317477050268417
-0.0302060974855156
-0.0287809388349246
-0.027532314724036
-0.0264470091329085
-0.0254586995132994
-0.024489391257848
-0.0234965847117081
-0.022507661855601
-0.0216266120412991
-0.0210080234541426
-0.0208063101282975
-0.0211191668480956
-0.0219477575220902
-0.0231896362413218
-0.0246663727829595
-0.0261729804635131
-0.0275278896908551
-0.0286042692857969
-0.0293341702482404
-0.0296900464968159
-0.0296570521589481
-0.0292108317343207
-0.0283103611665641
-0.0269073613008743
-0.0249665974889276
-0.0224875152951213
-0.0195182007370136
-0.0161571040347312
-0.0125442161567816
-0.00884822522930665
-0.0052567953788572
-0.00197298764067594
0.000785484308512073
0.00279187889938797
0.0038282272571168
0.00371750882562702
0.00236533735494399
-0.000199528110953179
-0.00379900529570678
-0.00810522768309789
-0.0126710140752552
-0.0169870085334538
-0.0205517720001453
-0.0229364758101984
-0.0238292268354225
-0.0230540454222404
-0.0205704534943948
-0.0164652708821491
-0.0109459303593763
-0.00433692869172409
0.00292646988252281
0.0103158607859973
0.0172444296230996
0.0231190174992926
0.0274048314294004
0.0296952879251873
0.029778300224446
0.027689855747314
0.0237455631624429
0.0185409693173868
0.012911938156648
0.00784768284169321
0.00435252221770178
0.0032603503825015
0.00501987508969722
0.0094877721137706
0.015785710489222
0.0222872756890738
0.0267935846672025
0.0269266335484452
0.0207179766123451
0.00730539700399175
-0.0124129931827141
-0.035359322226916
-0.0562829247882383
-0.0683291955387965
-0.064192812202113
-0.0377245199700362
0.0142991447037504
0.0906546298262076
0.184845553608184
0.285336991038552
0.377010649541715
0.44370864538683
0.471418550916644
0.45140483644552
0.382501118189313
0.271902890210798
0.134139947848463
-0.0116180681162281
-0.145304652987974
-0.249832645661107
-0.314164916811653
-0.334894728728849
-0.316085196715777
-0.267581071875373
-0.202358308624151
-0.133633116308106
-0.072400560118922
-0.0258624260807882
0.00308186405709458
0.0153820342453167
0.01471880103615
0.00610416883100632
-0.00543873319573877
-0.0158568077965003
-0.0225881372864269
-0.0246348923656194
-0.0222954042004946
-0.0167074110462782
-0.00935182728730934
-0.00163164296567518
0.00540826483713165
0.011202865122553
0.015650771527178
0.0190035805772869
0.0217113285778063
0.0242688580313742
0.0270944623337079
0.0304566461277287
0.0344512563283676
0.0390214858331096
0.0440074900303894
0.049210086029853
0.054453733367206
0.0596371019806606
0.0647639510719066
0.0699514868307313
0.0754169390294229
0.0814455599932805
0.088344844496411
0.0963909744841656
0.105774799931762
0.116556077633011
0.12863524835024
0.141750258778231
0.155501119832241
0.169397989139036
0.182921800435446
0.19558230171195
0.206958687852005
0.216713412228977
0.224578807479965
0.230325435720506
0.233726760888965
0.234534669966615
0.232475299413608
0.227267283357805
0.218657805932077
0.206467511238338
0.19063407161515
0.171245915686032
0.148561432498815
0.123013338044629
0.0952008727363003
0.065872583638868
0.0358996204491446
0.00623577397599177
-0.0221408355844099
-0.0483060491160387
-0.07148160247981
-0.0911250653201564
-0.106996025609529
-0.119177564612607
-0.128040984120972
-0.134156650203606
-0.138169911841775
-0.140672668135984
-0.142103746446098
-0.142703028597416
-0.142527352715977
-0.14151662827647
-0.139583950737573
-0.136699155366902
-0.132941496611774
-0.128509689655652
-0.123690795937056
-0.118799623006883
-0.114106346818767
-0.109772164412027
-0.105810968799534
-0.102089019167121
-0.0983648084387711
-0.0943598915800495
-0.0898418277217693
-0.0846961949675554
-0.0789678274412206
-0.0728611267659197
-0.0667018242052335
-0.0608729743288014
-0.0557425541198447
-0.051598311162455
-0.0486000522428949
-0.0467540220555343
-0.0459106149767501
-0.0457852355862542
-0.0460009755525507
-0.0461492659060379
-0.0458605152189407
-0.0448724857005241
-0.0430823673583954
-0.0405709510897613
-0.0375933354450897
-0.0345375742392104
-0.0318581340611932
-0.0299945014890607
-0.0292877484909361
-0.0299097974459692
-0.0318203094534242
-0.0347625978590302
-0.038302116646172
-0.0419007842932721
-0.0450113668265951
-0.0471717712205995
-0.0480805949524014
-0.0476411692943664
-0.0459687665321557
-0.0433623352145363
-0.0402473863608672
-0.0371007376067043
-0.0343706584275333
-0.0324067065182526
-0.0314113730383027
-0.0314207014843041
-0.0323145543306217
-0.033850930777851
-0.035714312763188
-0.0375665175443733
-0.0390902349365437
-0.040019645799204
-0.0401577482396887
-0.0393843432869749
-0.0376603665204897
-0.0350326720648389
-0.0316392197149969
-0.0277099433530211
-0.023555933072459
-0.0195408311628742
-0.0160337277901598
-0.0133504095036032
-0.0116961398855558
-0.0111251118060124
-0.0115282898805938
-0.0126540641358769
-0.0141577763515476
-0.0156693025760879
-0.0168640171108047
-0.0175222201019617
-0.0175652309516134
-0.0170617212531155
-0.0162039078087248
-0.0152587126776822
-0.0145034352695766
-0.0141587126899216
-0.0143331145566602
-0.0149928030373498
-0.0159655671454706
-0.0169812191317089
-0.0177410584213339
-0.0180003758905899
-0.0176427940126478
-0.0167257819786575
-0.0154832368371829
-0.0142818579512619
-0.0135401071581188
-0.0136284768777025
-0.0147748676267881
-0.0169977356449281
-0.0200826625200758
-0.02360719406473
-0.0270074940469616
-0.0296719774902892
-0.0310436793977117
-0.0307143882683568
-0.0284973770697927
-0.0244696213010232
-0.0189778408713599
-0.0126061349904938
-0.00610726875713438
-0.000304901229412744
0.00402064427823155
0.0062465037997325
0.0060036539341934
0.00324071867873307
-0.00175343821980631
-0.00836973811109678
-0.0157378543219721
-0.0228195403558559
-0.0285340867664122
-0.0319153296346514
-0.0322955403319388
-0.0294987132039752
-0.0240062005470005
-0.0170388339872346
-0.0104921916625441
-0.00667474889885283
-0.00783610965320947
-0.0155305505088485
-0.0299280475315583
-0.0492428094022709
-0.0694771612547715
-0.0846576593971709
-0.0876604139336071
-0.071588502717926
-0.0314996170483771
0.0338722115118757
0.120850266861056
0.220440465273672
0.31914147240811
0.400972115253397
0.450423633370032
0.455741240343344
0.411756628968854
0.321510276613117
0.196147951878568
0.0530033499332244
-0.0877312575385821
-0.206949966209906
-0.290233586474171
-0.330265808756076
-0.327579969760792
-0.28961114803454
-0.228445975871729
-0.157925722424559
-0.0908196212682322
-0.036662575100221
-0.00060686988767043
0.0166473138932085
0.0180271659831148
0.00871389759901159
-0.00538208087384936
-0.0189486646590387
-0.0281699425100846
-0.0311055789399351
-0.0275945068225
-0.0188183125135655
-0.00670088419758272
0.00668675308240987
0.0195905884886948
0.0308411534537212
0.0399186548927106
0.0468564939568773
0.0520502380519802
0.056043852368141
0.0593517178107752
0.0623505921922845
0.0652485487325411
0.0681156634035701
0.0709488865911477
0.0737423988018561
0.0765421546387036
0.0794742164138233
0.0827461187847098
0.0866264572365665
0.0914101330063739
0.0973763932052197
0.104745357103418
0.113637403208406
0.12403955795688
0.135783945261328
0.14854432913539
0.161856098095069
0.175161499647919
0.18787575866854
0.199462711243451
0.209503476461046
0.217740867064925
0.224086573793268
0.22858662161433
0.231350950129791
0.232462728057783
0.231889872995216
0.229423217046207
0.224661636586012
0.217054604983867
0.205999164765065
0.19097454530823
0.171687045278317
0.148193160144387
0.120971758624704
0.0909260524582553
0.0593107843066221
0.0275956640997949
-0.00271126138000532
-0.0302494880025126
-0.0539695152630082
-0.0732470206033651
-0.0879300105698368
-0.0983131122039825
-0.105046065789775
-0.108995281940137
-0.11108571368394
-0.112153257465477
-0.112834491266701
-0.113511355924028
-0.114315365837861
-0.115182094315126
-0.115935565095409
-0.116377036141116
-0.11635508511127
-0.115802854453142
-0.114740330656954
-0.113250198179726
-0.11144163216824
-0.109416234408312
-0.107245648522962
-0.104964207451724
-0.102574930187102
-0.100064275004798
-0.0974197376615643
-0.0946439880562449
-0.0917600400343698
-0.0888047553528774
-0.0858127332400785
-0.0827975264886317
-0.0797393584882766
-0.0765863534748186
-0.073270667194269
-0.0697349021214245
-0.0659606723562857
-0.0619908756542456
-0.0579390467353386
-0.0539819423505268
-0.0503349955249228
-0.0472145551207058
-0.0447952232925659
-0.0431734448275529
-0.0423479832037659
-0.0422234157014826
-0.0426356758644611
-0.0433919024316612
-0.0443132046276874
-0.0452693583125112
-0.0461978161562916
-0.0471039451719659
-0.0480437957152115
-0.04909428409428
-0.0503180030606502
-0.0517306614127382
-0.0532783646105131
-0.0548298719347883
-0.0561861215883418
-0.0571062485076022
-0.0573463832277914
-0.0567048758253665
-0.0550654683694519
-0.052428879438192
-0.0489240873032762
-0.0447940714208859
-0.0403569155527146
-0.0359505345792051
-0.0318749903408151
-0.0283474840167586
-0.0254806055873046
-0.0232861136853985
-0.0216982575065518
-0.0206060360928829
-0.0198840691902602
-0.0194154427421061
-0.0191042832162701
-0.0188789387566256
-0.0186881191894254
-0.0184929005250454
-0.0182579498166246
-0.0179457431558601
-0.0175171143951264
-0.016939265555951
-0.0161985935679019
-0.015312156245424
-0.0143307513242311
-0.0133296230861541
-0.0123885662146953
-0.0115686869388085
-0.0108953598902672
-0.0103547769355279
-0.00990597290797829
-0.00950384596184719
-0.00912402203895522
-0.00877903594947632
-0.00851774163943467
-0.00840577110572423
-0.00849270902641864
-0.00877839757912224
-0.0091928124309651
-0.00959938165300976
-0.00982215425360276
-0.0096875044236891
-0.00906580881806078
-0.00789975611976586
-0.00621216279202214
-0.00409387775013885
-0.00167825969947989
0.000888847465143637
0.003475563735786
0.00598162231089855
0.00834537100154942
0.0105411224067555
0.0125696954026577
0.0144458140153033
0.0161860695949211
0.0178007070367029
0.0192916471431853
0.0206576640499902
0.021905291840067
0.0230612247616488
0.0241798232102149
0.0253392111042467
0.026622199273702
0.028083620672588
0.0297120305321289
0.0313986103578722
0.0329271050862268
0.033994557008608
0.0342642374288646
0.033441977012695
0.0313582904459378
0.028034180024574
0.0237100521103319
0.0188249950637582
0.0139461225995006
0.009661354485884
0.00645954786260337
0.00462584516578705
0.00417648658662352
0.00484784594408528
0.00614224213649392
0.00742121039062215
0.00802756507584468
0.00741218778010093
0.00524104835764531
0.00146282332084225
-0.00367351362661226
-0.0096513874198427
-0.0157617186065134
-0.0212092475395193
-0.0252403819619695
-0.0272855479369815
-0.0271074212058574
-0.024936717483944
-0.021560984848885
-0.0183169194254222
-0.0169344076193658
-0.0192003374007061
-0.0264549887874637
-0.0389964779084636
-0.0555325162509917
-0.0728607534475422
-0.0859568335373437
-0.0885891592224112
-0.0744627727026812
-0.0387421771139903
0.0203480246099594
0.100248062390952
0.193526856766101
0.288390499948128
0.370321254934435
0.424642726305188
0.439519199784362
0.408700282484297
0.333294013899705
0.222031295134186
0.0898468326826133
-0.0449484518998166
-0.164233746258546
-0.253510142882677
-0.304383129408975
-0.315573965608218
-0.292356080602653
-0.244715658090116
-0.184808785495992
-0.124374508173326
-0.0726711561937811
-0.0352875414909805
-0.0139184974256039
-0.0069601518197733
-0.0106268010018011
-0.0202395379336496
-0.0313775289659864
-0.0406850600080334
-0.0462519404901608
-0.0475966626583085
-0.0453582732243267
-0.0408361920301163
-0.0355116478271342
-0.0306524410955353
-0.0270594389738749
-0.024971256522458
-0.0241104877513972
-0.0238330730466535
-0.0233314697037228
-0.0218410013144781
-0.0188059462740117
-0.0139761078892441
-0.00742318346663301
0.000514780473273834
0.00933775588086733
0.0185066414526384
0.027555710816939
0.0361734174736202
0.0442411404884471
0.051829602504287
0.0591599559849385
0.0665404591889299
0.0742912224854451
0.0826699964142643
0.0918118649003025
0.101694318430915
0.112135418678479
0.122826244301115
0.133390532095047
0.143456709771239
0.152723179927538
0.160998793616256
0.168207029599209
0.174352473282297
0.179458718755593
0.183494972046413
0.186312450104203
0.187610149296758
0.186942803424665
0.183773338516137
0.177560614548447
0.167863985582321
0.154441847498629
0.137323002894287
0.116836629383345
0.0935965406162973
0.0684451443351141
0.0423693570296685
0.0164035059585913
-0.00846665540615923
-0.0313877378821924
-0.0517026039852432
-0.0689891895124524
-0.083070932050519
-0.0939977182725107
-0.101999962179544
-0.107423543659879
-0.110658418533427
-0.112076409761082
-0.111991843608148
-0.110651716217139
-0.108251987548768
-0.104967628896461
-0.100980405872996
-0.0964915721862072
-0.0917145499222141
-0.0868511278063668
-0.0820603160300614
-0.0774307409577849
-0.0729662393591087
-0.0685913129017147
-0.0641788129817695
-0.0595966923694309
-0.0547643875031995
-0.049703916485156
-0.0445684857859869
-0.0396345814677064
-0.0352528643997304
-0.0317665650396948
-0.0294187031722646
-0.028275876824156
-0.0281932587112469
-0.0288335330729378
-0.0297362117597463
-0.0304189311412771
-0.0304836687533194
-0.0297004480121723
-0.0280484013506185
-0.0257063301429954
-0.0229983052635974
-0.0203105745799305
-0.0180013788384465
-0.0163244074217694
-0.0153807956174056
-0.0151064823980132
-0.0152942251995326
-0.0156440883979502
-0.0158325496830012
-0.0155875947353391
-0.0147551606364791
-0.0133421285751761
-0.0115242094746276
-0.00961402570989911
-0.00799425026773187
-0.00703004059241968
-0.00698096522288254
-0.00793305719231529
-0.00976662179020295
-0.012166989944108
-0.014676130429198
-0.0167748486997384
-0.0179792799595879
-0.0179322546242992
-0.0164705735788283
-0.013653668708743
-0.00974711486791336
-0.00516453042038291
-0.000381225941703882
0.00416012802033536
0.00812976419876366
0.0113592287218373
0.0138494471289382
0.0157413521992099
0.0172615682347196
0.0186601619768413
0.0201558682321282
0.0218981472526476
0.0239482693616924
0.0262764191192658
0.0287698726942306
0.031248037986738
0.0334820289981423
0.0352180865335837
0.0362048510427187
0.0362241686281759
0.0351239486341623
0.0328497318757274
0.0294693640263514
0.0251834229086418
0.0203143464288744
0.0152707093910806
0.0104894376677613
0.00636584961829992
0.00318647741090735
0.00108045155620525
1.14716838788703e-06
-0.000258067918617377
-1.91318122026657e-05
0.000342216201228728
0.000459841014066179
2.96311946463382e-05
-0.00115643445484518
-0.00319536876531734
-0.00607324862777238
-0.00967457582476281
-0.0137971554154983
-0.0181723780334109
-0.0224934694157163
-0.0264537679312077
-0.029793026918631
-0.0323439490381644
-0.0340668790547685
-0.0350607436907033
-0.0355438406900752
-0.0358070906585781
-0.0361511132214715
-0.0368233349211827
-0.0379706475537256
-0.0396178176166195
-0.041674401541494
-0.0439659013153179
-0.0462798411476343
-0.0484148644606701
-0.0502209929864743
-0.0516220436578822
-0.0526166299658562
-0.0532608019520064
-0.0536407886014511
-0.0538463018513879
-0.053952864989591
-0.0540169610564533
-0.0540826984824421
-0.054195072275398
-0.0544136750430756
-0.0548217128095174
-0.0555273410126646
-0.0566562016083872
-0.0583346914572896
-0.0606634134195772
-0.0636812244097282
-0.067323844798853
-0.0713866404697217
-0.0755060196496896
-0.0791742050580522
-0.0817959205267446
-0.082783870082994
-0.081676637403745
-0.0782526716821461
-0.0726112626696383
-0.0651973329093517
-0.0567599519716101
-0.0482505771449252
-0.040681026823274
-0.0349691412263075
-0.0318005550531126
-0.0315289527883266
-0.0341270364335925
-0.0391894963122065
-0.0459810710304083
-0.053519769515528
-0.0606873732502447
-0.0663634491744583
-0.0695808794107537
-0.0696967448256711
-0.066561362207227
-0.0606531342314112
-0.0531337176002557
-0.0457743340453458
-0.0407159739068175
-0.0400562108891385
-0.0453007373109046
-0.056770326395216
-0.0731003567318529
-0.0909939104416472
-0.105375649479381
-0.110033709038287
-0.0987335898688355
-0.0666581372761295
-0.0119008532436412
0.0633461987507998
0.152277362808323
0.243907507073785
0.324542672962053
0.380120759656775
0.398997400616783
0.374565804956055
0.307056387285664
0.204002538226982
0.0791675086801733
-0.0498754658314539
-0.164956836146089
-0.250563650135792
-0.296400779077102
-0.298757623978634
-0.26051722252585
-0.18997855768367
-0.0988973907641924
-0.000243311562120929
0.0938707304186939
0.173762232464848
0.233098695798626
0.269156922438226
0.282522971573227
0.276390214322899
0.255630479883973
0.225807361828941
0.192280359530234
0.159515108726002
0.13066870296699
0.107464991361133
0.0903229759323995
0.0786632460319887
0.071300060003657
0.0668310243500575
0.0639571838256509
0.0616952601978232
0.0594723420393659
0.0571158127563961
0.0547655853481943
0.0527423649830473
0.0514063182246627
0.0510366622482832
0.0517551898309049
0.0535061250595582
0.0560917384336592
0.059249699627684
0.0627473757647017
0.066463696366319
0.0704329591524453
0.074836575972007
0.0799449986311728
0.0860277845175911
0.0932596472452975
0.10165093908046
0.111022257820087
0.121028131614276
0.131219375594634
0.141122984296662
0.150315600750546
0.158471862693737
0.165379319290972
0.170922457158625
0.175045643923599
0.177707065334042
0.178834341771755
0.178290010598371
0.175853266768045
0.171223334893986
0.164048223383735
0.153978846348749
0.140742403781352
0.124222263826015
0.104527188204341
0.0820326370363866
0.057381413210418
0.0314390423560915
0.0052093920819176
-0.0202741378386388
-0.0440600502351085
-0.06537085894604
-0.0836608587460042
-0.0986358148493487
-0.110241372333324
-0.118632448828308
-0.124135014703542
-0.127206530636737
-0.128395525125795
-0.128297438178428
-0.127504263971219
-0.126549172956146
-0.125852256907714
-0.125677205506242
-0.126108916811945
-0.127058239820197
-0.12829370738044
-0.129493760906062
-0.130308746074121
-0.130420824522951
-0.129591696076061
-0.127691737940764
-0.124708595570015
-0.120737162438307
-0.115955450756951
-0.110592054823824
-0.104891326232532
-0.0990824733096376
-0.093358291477768
-0.0878673048286928
-0.0827192744568673
-0.0779990999739987
-0.0737803507505271
-0.0701296285473192
-0.0670977043126904
-0.0647009525463136
-0.0629028681628986
-0.0616066453784144
-0.0606651403113077
-0.0599067208266533
-0.0591688633020307
-0.0583290374492328
-0.0573245579244891
-0.0561572585550255
-0.0548824771846173
-0.0535843303535054
-0.0523418361530946
-0.0511938986421536
-0.0501140638006422
-0.0490054851423878
-0.0477211642110128
-0.0461057097999287
-0.0440463310105848
-0.0415164381439651
-0.0385971706987958
-0.0354697268010389
-0.0323813100798346
-0.0295955825415451
-0.0273416555716207
-0.0257735739556638
-0.0249471873836193
-0.0248161926991758
-0.0252456432435579
-0.0260391867172086
-0.0269747308983214
-0.0278418740701721
-0.0284741055696736
-0.0287702966407243
-0.0287028998689494
-0.0283130459033131
-0.0276943298979034
-0.0269679146083822
-0.0262527421627602
-0.025636429185673
-0.0251537263922798
-0.0247786864327916
-0.0244332471377705
-0.0240097589224714
-0.0234003090554956
-0.0225238831733471
-0.0213443959680289
-0.0198770902567444
-0.0181849906608598
-0.0163688459412944
-0.014553165906151
-0.0128691924061678
-0.0114349830505151
-0.0103342790917898
-0.00959874807357218
-0.0092002616683967
-0.00905863652715796
-0.00906497050507847
-0.00911333521504881
-0.00912815592771286
-0.00907489071608303
-0.00894858673593524
-0.0087455995712709
-0.00843270961615534
-0.00793022189685576
-0.00712008776851638
-0.00587934106025597
-0.0041280744137091
-0.0018744129226022
0.000760922688983642
0.00355108390513876
0.00620066696615071
0.00840427765620607
0.00990958937685437
0.0105674120196298
0.01035553508533
0.00937116687069234
0.00779627198156585
0.00584796378833046
0.00372961419275149
0.00159638461675402
-0.000457516587090921
-0.00239079551452584
-0.0041942740789058
-0.00586887019676551
-0.00741286380928766
-0.0088239898332386
-0.0101148443872166
-0.0113333697195421
-0.012576204376887
-0.0139832460417392
-0.0157073215234372
-0.0178619704980482
-0.0204600280017772
-0.0233624150443671
-0.0262574910558331
-0.0286853320570435
-0.0301095107385175
-0.0300247488320187
-0.0280768179244202
-0.0241654987124122
-0.0185044106765969
-0.0116221317991405
-0.004303384528221
0.0025178422060813
0.00789321634192638
0.0110006780893542
0.01127048030579
0.00848088679313059
0.00281304537491444
-0.00514073464076086
-0.0144181036766334
-0.0237790242647137
-0.0318506346966827
-0.0373226109470456
-0.039181975082143
-0.0369608103366994
-0.0309512570867143
-0.0223258055171077
-0.0130957868442921
-0.00585527767268772
-0.0032956002970515
-0.00753409350704352
-0.0193682599202424
-0.0376249580798265
-0.0588042950423124
-0.0772022515296663
-0.0856249640196721
-0.076683321903072
-0.0444980900589917
0.0135106687742105
0.0951832552338872
0.192974710306057
0.294438812359285
0.383946213747373
0.445432383255654
0.465658799840564
0.437249085310434
0.360717280707542
0.244885482680205
0.10547105690132
-0.0378900159273978
-0.165480828373117
-0.261263317374417
-0.315666657497359
-0.326814011254984
-0.30004335970863
-0.246015712422447
-0.17800708199356
-0.109086534419333
-0.0497978961478622
-0.0067446426660362
0.017793838493423
0.0253347179932688
0.0200443312887654
0.00733331428340987
-0.00746680948207066
-0.0200981541924227
-0.0279184977360618
-0.0299889284341192
-0.0267991859072167
-0.0197756099311943
-0.0107270632256041
-0.00135997362162414
0.00705249319345183
0.0138158951124846
0.0187918791333065
0.022258589760189
0.0247198959463537
0.0267249386999779
0.0287408435612227
0.0310957472338876
0.0339847458130175
0.0375147409829401
0.041758882359157
0.0467967074342909
0.0527279724930384
0.0596607638354023
0.0676830958590297
0.0768302746073723
0.0870592145957856
0.098237823374131
0.110153530149559
0.12254000379641
0.135115597415724
0.147622940220716
0.159858539866904
0.171684930190623
0.183024175547226
0.193837360757926
0.204097458395004
0.213762174278879
0.222750726782354
0.230926273088515
0.238084716495432
0.243950089638926
0.248175771421938
0.25035017904936
0.2500069460249
0.246643255665806
0.239753498065446
0.228884929990828
0.213715498731043
0.194143285037848
0.17036708702792
0.142933719150035
0.112732308031444
0.0809281680340853
0.0488445700616748
0.0178144345671184
-0.0109688663891883
-0.0365737266575064
-0.0584061038875065
-0.0762313861065362
-0.0901463240892661
-0.100513439891012
-0.107874447383939
-0.112858955647507
-0.116100961074295
-0.11817035750077
-0.11952244842074
-0.120466877168407
-0.121157951326896
-0.121608583948004
-0.121727625828557
-0.121374884326815
-0.120421754414583
-0.118801548891317
-0.116535140668536
-0.113724990988034
-0.11052158845079
-0.107076164338334
-0.103497883056771
-0.0998307710890515
-0.0960571110585265
-0.0921237734023475
-0.0879800486816304
-0.0836126447905739
-0.0790661248804389
-0.0744434877746996
-0.0698888149288936
-0.0655591214775657
-0.0615943695632414
-0.0580932563182945
-0.0550991901016187
-0.0525975172956628
-0.0505228727753797
-0.0487747573840831
-0.0472392964451753
-0.0458145836988865
-0.0444357071335145
-0.0430939846938017
-0.0418441798851489
-0.040794784219671
-0.040080562967939
-0.0398226307292759
-0.0400868500455014
-0.0408535393237847
-0.0420090114584805
-0.043363118223154
-0.0446890283295958
-0.0457746594409958
-0.0464717296959837
-0.0467292462791538
-0.0466028746219754
-0.0462383847987927
-0.0458341671476145
-0.0455927522203143
-0.0456731660391198
-0.0461546767014955
-0.0470189355813713
-0.0481529820013215
-0.0493710947498865
-0.0504497061730677
-0.0511672110803459
-0.0513402389302029
-0.0508500684186798
-0.0496565444770864
-0.0478004525318987
-0.045397311851698
-0.0426255792857324
-0.0397110868030994
-0.036908261754504
-0.034477826300548
-0.0326602622269323
-0.0316446619543125
-0.0315345064354612
-0.03231578861355
-0.0338373712482231
-0.0358155322240494
-0.0378714631003153
-0.039601455899197
-0.0406671815653325
-0.0408826791160989
-0.040270555090095
-0.0390654931174876
-0.0376578288920224
-0.0364890973352625
-0.0359282057086451
-0.0361647142695174
-0.0371512532826732
-0.0386117727048213
-0.0401118865769827
-0.0411697167286267
-0.0413764026460197
-0.0404965844105294
-0.0385280169772428
-0.0357112201729359
-0.0324906283244959
-0.0294363157203574
-0.0271403629919167
-0.0261053855056402
-0.0266450872902731
-0.0288169179240136
-0.0324031047197058
-0.0369474909974516
-0.0418431356768968
-0.0464531314074364
-0.0502384753121548
-0.0528643679078578
-0.0542603111428117
-0.054618844703851
-0.0543309938565815
-0.0538710777192813
-0.0536564192126994
-0.0539156250064181
-0.0546000107588784
-0.0553652356297412
-0.0556349158031633
-0.0547377216670552
-0.05208898700183
-0.0473729167987212
-0.0406772257948092
-0.0325411136675854
-0.02389836038468
-0.0159240717457456
-0.00981792787605674
-0.00657154551770017
-0.00676944784012005
-0.0104630862359997
-0.0171393686566761
-0.0257846991074406
-0.0350281457014851
-0.0433371438659827
-0.0492374105736593
-0.0515331907349685
-0.049509422134677
-0.0430985934709714
-0.0329898890406441
-0.0206493968074386
-0.00821414337969516
0.00177298005452714
0.00679972616759356
0.00496574060392008
-0.00437125966063161
-0.020019119894651
-0.0386173255740625
-0.0547186643957613
-0.0614079796431382
-0.051473284263089
-0.0189980690902347
0.0389108089547969
0.120662500270893
0.219424689666424
0.323421192613743
0.417431917096009
0.485351158118984
0.513351026219025
0.492959374106603
0.42328223223799
0.311733231542267
0.17297040406005
0.0262040547888558
-0.10851138963654
-0.214105103021297
-0.279522314535775
-0.301295047190808
-0.283405062283799
-0.235640459792974
-0.170988211024158
-0.102760005204055
-0.0421073687693537
0.00361080496711933
0.0314137455773826
0.0423077384544951
0.0401881445344504
0.0304040352861238
0.0183526219528896
0.00838791184055888
0.00320056276978729
0.0036914396152453
0.00925064259972517
0.0182859322511032
0.0288259208076621
0.0390485049259945
0.0476386614487136
0.0539423015591948
0.0579367120720288
0.0600725201102073
0.061054751486924
0.0616253213819619
0.0623928938589486
0.0637351190649006
0.0657779974980235
0.068440924664986
0.0715254328541469
0.0748208092719614
0.0781998865266946
0.0816827806909998
0.085454845349844
0.0898365300013077
0.0952145648893601
0.101952532814498
0.110302088389629
0.120333820603615
0.131900886176592
0.144641360471814
0.158018361238617
0.171391110176572
0.184105379383954
0.195588258427857
0.205430116878028
0.213436736239352
0.219637901292404
0.224245983954823
0.227568689432966
0.229891990844319
0.23135897632478
0.231874388733979
0.23106089980262
0.228282044069344
0.222731396091939
0.213572519075716
0.200103246112221
0.181912882128769
0.159002179267624
0.131842735125277
0.101363388548288
0.0688641416100279
0.035870695868274
0.00395274612777071
-0.0254647314044149
-0.0512666796982478
-0.07276301160465
-0.0897356723596877
-0.102412483349617
-0.111376602636723
-0.117432562113168
-0.121456748078983
-0.12426028097298
-0.126486261030927
-0.128553682393876
-0.130649796217317
-0.132763666010697
-0.1347476056828
-0.136390662018349
-0.137488944736623
-0.137900510807118
-0.137576695273816
-0.136566534360408
-0.134995828502786
-0.133027090134938
-0.13081056055342
-0.128438846741263
-0.125917661741252
-0.123162103571149
-0.12002195809233
-0.116331578542656
-0.111971851343293
-0.106926263446048
-0.101312775707828
-0.0953792973897832
-0.0894616787996405
-0.0839154056051107
-0.0790408247689112
-0.0750234643461176
-0.071905533045467
-0.0695944947721892
-0.0679034878400788
-0.0666097639436509
-0.0655134938958968
-0.0644809282523531
-0.0634621322837263
-0.0624820835660568
-0.0616118968436104
-0.060931794628722
-0.0604979979544133
-0.0603224882568911
-0.0603693349300987
-0.0605659987926559
-0.0608241655626506
-0.0610629002795051
-0.0612272525585726
-0.061297433745279
-0.0612866293157544
-0.0612286569705981
-0.0611593422204343
-0.0610970800053073
-0.0610282662490467
-0.0609021574209366
-0.0606374858018579
-0.0601400973389368
-0.0593274922150923
-0.0581534229575177
-0.0566248337658694
-0.0548050968887843
-0.0528014392817507
-0.0507394525203736
-0.0487318391536115
-0.0468502910102185
-0.0451078291200086
-0.0434549432279395
-0.0417886085584237
-0.0399707686996026
-0.0378527167522996
-0.0353028166375566
-0.0322353878756694
-0.0286374204345388
-0.0245877664069193
-0.020262319920099
-0.0159200480702204
-0.0118689051866795
-0.00841638178307963
-0.00581453207775479
-0.004211863671144
-0.00362356213301015
-0.00392742586495977
-0.0048868232802827
-0.00619573963507918
-0.0075362187160855
-0.00863609023831752
-0.00931484495781223
-0.00950769494123332
-0.00926221100574768
-0.00870818092388714
-0.00800829057668185
-0.00730281752266207
-0.00666363194769975
-0.0060703526349378
-0.00541508248900253
-0.00453384173948305
-0.00325542339745417
-0.00145423409965694
0.000906371883934882
0.0037504343287032
0.00689047092062333
0.0100529734258106
0.0129231678931514
0.0152000773308218
0.0166505376022982
0.0171504952755577
0.0167042678624737
0.015437416815001
0.0135653059554196
0.0113453353706607
0.00902441845968384
0.0067935445615711
0.0047583895599619
0.00293014227516204
0.00123602075051163
-0.000453879995648545
-0.00228757656301985
-0.00438460850411109
-0.00678827404175683
-0.00942621628005577
-0.0120910574964655
-0.0144513166271369
-0.0160967569349362
-0.0166130522838026
-0.0156713704937544
-0.0131125496667175
-0.00900527882235325
-0.00366335357022795
0.00238318082444535
0.00845746971229573
0.0138317652430197
0.0178313693637042
0.0199286264969582
0.0198133922940551
0.0174329644301783
0.0130012047601522
0.0069816734736128
5.13651380709759e-05
-0.00695099214855992
-0.0130944260647134
-0.0174517979420628
-0.0192322120657295
-0.0179501622331947
-0.0136117404064591
-0.00687282814924495
0.000896360110366515
0.00770998439512632
0.0112766212334343
0.00951997101091708
0.00124150852028943
-0.0132139982031674
-0.0314793714119817
-0.0490694565064924
-0.0598169984208998
-0.0568807119004625
-0.0342182213602056
0.0117390753363569
0.0805918925391767
0.167083118024579
0.261167340391339
0.349213547932449
0.41624783746801
0.448850819550543
0.438088084850808
0.381753629088115
0.285301405763394
0.161131808301059
0.0263216934559491
-0.100686684030576
-0.203633618288015
-0.271372346483672
-0.299528357380421
-0.290607035154702
-0.252683145916928
-0.19713443676269
-0.13604581448333
-0.0798933182823081
-0.035954624988032
-0.00765216608029321
0.00521047777418998
0.00554835272594209
-0.0022392991105305
-0.0135037053846963
-0.0243205919310626
-0.0320600429433303
-0.0355330635964564
-0.0347957670925332
-0.0307490143259371
-0.0246813277239353
-0.0178749128652583
-0.0113449531940962
-0.0057288473508325
-0.00129939169416469
0.00194754620227209
0.00418338456783889
0.00565510286482329
0.00663084357396961
0.0073821219150119
0.00818837878057107
0.00934534866722122
0.0111626377957476
0.0139443576032383
0.0179554505498217
0.0233824699249126
0.0302998963450555
0.0386520084794596
0.04825689951179
0.058834217347286
0.0700521186919562
0.081582839367863
0.0931523534942484
0.104570214473443
0.115731670034717
0.126593663365509
0.137135468173805
0.147319477119261
0.157066001257201
0.166248681332459
0.174707659641092
0.182270353154079
0.188767554187057
0.194035967795769
0.197905064792677
0.20017333636774
0.200584270522263
0.198814258996305
0.19448282492167
0.187190545091993
0.176582986714603
0.162431440327983
0.144714954899471
0.123684852990557
0.0998937145576049
0.0741760835279075
0.0475772536678885
0.0212379616446934
-0.00374572655847769
-0.0264598224943031
-0.0462778154488856
-0.0629110880725361
-0.0763946882438815
-0.0870152168464525
-0.0952018263455506
-0.101408946456858
-0.106018698084446
-0.109283428666237
-0.111317408083478
-0.112134308817505
-0.111715812661045
-0.110088608941305
-0.107384484775189
-0.103862869631902
-0.099886750514271
-0.0958581247436078
-0.0921327857501105
-0.0889410552894618
-0.0863386233707017
-0.0842014466444021
-0.0822651582943885
-0.0801975515180469
-0.0776854659207001
-0.0745154392907098
-0.0706299129220479
-0.0661464781044352
-0.0613356892114953
-0.0565622543194466
-0.0522032863033494
-0.0485635606871205
-0.0458092766068777
-0.0439375848915858
-0.0427897712674291
-0.0421037940384559
-0.0415903317432376
-0.0410093583401204
-0.040224452767513
-0.0392201587955664
-0.0380809786682278
-0.0369436301869931
-0.0359416981126681
-0.0351613862977119
-0.0346202171182444
-0.0342711005837271
-0.034026048442243
-0.0337891713268111
-0.0334878696200479
-0.0330934578085883
-0.0326264971371237
-0.0321466386935681
-0.0317309817842088
-0.0314481721637289
-0.0313368562072341
-0.031395795140045
-0.0315887423689787
-0.0318612768367033
-0.03216163567808
-0.0324558737757076
-0.0327306451528216
-0.0329832868674624
-0.0332053613048142
-0.0333689326323831
-0.0334231767002214
-0.0333037143549124
-0.0329511800443707
-0.0323316642899413
-0.0314511342247138
-0.030358528686373
-0.0291365231901055
-0.0278830559253801
-0.0266891667949085
-0.0256191465579398
-0.0246978203993557
-0.0239076144667874
-0.0231955646770184
-0.0224883929181673
-0.021712641515753
-0.0208163536792474
-0.0197883226685661
-0.0186704243740663
-0.0175586484260814
-0.0165899237160036
-0.0159148985484006
-0.0156608845414625
-0.0158929596615894
-0.0165832990947906
-0.0175981739483026
-0.0187086866336469
-0.0196260180528497
-0.0200559621670359
-0.0197621402065815
-0.0186239011383642
-0.0166747154704312
-0.0141102670343977
-0.0112617232877184
-0.00853730053637741
-0.00634257891554801
-0.00499563003047015
-0.00465567251510833
-0.00528263917910303
-0.0066391993041623
-0.00833703817551228
-0.00991783825708378
-0.0109500699071155
-0.011118780889588
-0.0102883012002897
-0.00852558231051833
-0.00608159626988824
-0.00333693713394207
-0.000723943191760683
0.00135908430042678
0.00262549836423554
0.00295558362214423
0.00241902159395058
0.00125911386010093
-0.000160341082939604
-0.00143703982644048
-0.00222473850834212
-0.00231850652475378
-0.00170841951338112
-0.000585979542452301
0.000700047546460533
0.00172725077544059
0.00210024802279746
0.00154216487152718
-4.45261408167036e-05
-0.00255825810414171
-0.00571792756119096
-0.00911140818719422
-0.0122602099923128
-0.0146898759587571
-0.0159991533033343
-0.0159220011250345
-0.0143746652772235
-0.0114781938530189
-0.00754860946176593
-0.00305398571011719
0.00145252016125254
0.00540726601171314
0.00830161992900408
0.00972886344429139
0.00941359508453448
0.00723236432571675
0.00323462179486048
-0.00233393608796913
-0.00901419322156528
-0.0161401406215262
-0.0228893238574867
-0.0283913164984441
-0.0318933732410469
-0.0329611788921346
-0.0316701990192392
-0.0287267305269302
-0.0254550549994065
-0.0236037420218727
-0.0249609442537631
-0.0308201666079528
-0.0413938880053232
-0.0553187551945912
-0.0694179355753173
-0.0788698696452495
-0.0778692420447094
-0.0607570025931946
-0.0234587387042444
0.0350619508972191
0.111712647760733
0.198916570554949
0.285249270534869
0.357107775928682
0.401179595300732
0.407222192495822
0.3705037444951
0.29325916370929
0.184707526537093
0.0595255244050692
-0.06491703474904
-0.171909143020071
-0.248527728126613
-0.287813424591487
-0.289547681765169
-0.259573107302763
-0.207961854767237
-0.146575493404208
-0.0866279905413106
-0.0367711122286688
-0.00201952194469105
0.0164092884354821
0.0204806162598833
0.014235717606792
0.00252321542787803
-0.0101363720577978
-0.0203510516784876
-0.0262365347197784
-0.0273954468923866
-0.0245955539394357
-0.0192844653440554
-0.0130791559454454
-0.00734136712073623
-0.00290730462365778
5.75350772887831e-06
0.00173301880170682
0.00298105328229464
0.00459137983868193
0.00730932169866967
0.0116082517680084
0.0176008556264779
0.0250463320448068
0.0334406086866016
0.0421601297565714
0.0506213296279958
0.0584181195402155
0.0654074443697839
0.0717261212593396
0.0777382380012025
0.0839285064920948
0.0907698126696275
0.0985993567379055
0.107534912287613
0.117451068113599
0.12801813382345
0.138789001604453
0.149306951312486
0.159203519199238
0.168260585276897
0.176422518625679
0.183758654212444
0.190389418750287
0.196397829605245
0.201750161434677
0.206245486526154
0.209505500648051
0.211006448374266
0.210146590556399
0.206336766430885
0.199098285374857
0.188151344850225
0.173478364539786
0.155350283981261
0.134310046360468
0.11111550582404
0.0866522076856835
0.0618326888639765
0.0375012569187499
0.0143609119875006
-0.00706718901138272
-0.0264498649634187
-0.0436202014068064
-0.0585402797931997
-0.0712617395260317
-0.0818939094060818
-0.0905828251473199
-0.0974986290880987
-0.102826395289222
-0.106756754789977
-0.109475868883762
-0.111156780399537
-0.111954652610785
-0.112007159694615
-0.111439386285823
-0.110371052350995
-0.108923330892997
-0.107223045015487
-0.105403053865035
-0.103598274763463
-0.101936685837793
-0.10052465215742
-0.0994274613684436
-0.0986493762949627
-0.0981209567217951
-0.0977018439645148
-0.0972029351285169
-0.0964243140222822
-0.0951984442307701
-0.0934259101431545
-0.0910945662624094
-0.0882799548565736
-0.0851311436716594
-0.0818485843424301
-0.0786588748333097
-0.0757877878019444
-0.07343084874589
-0.0717219935808631
-0.0707047312326265
-0.0703141138052669
-0.0703786586687783
-0.0706474807743756
-0.0708400229802367
-0.0707071743409072
-0.0700874883900918
-0.0689432638184143
-0.0673676788209001
-0.0655626595957245
-0.0637943109539362
-0.0623368817020555
-0.0614173957014465
-0.0611718622060046
-0.0616208829073188
-0.0626679110398041
-0.0641180789521182
-0.0657106601498953
-0.0671555874243931
-0.0681653080902203
-0.0684773024301684
-0.0678676244498805
-0.0661591213011102
-0.0632282199509941
-0.0590121121063847
-0.0535156992634767
-0.0468162039317626
-0.0390631687215931
-0.0304721932886908
-0.0213118116233102
-0.0118842238242081
-0.0025017858507474
0.00653839707393851
0.0149797825056005
0.0226297124701398
0.0293775378170186
0.0352021531566183
0.0401629233948098
0.0443711612411433
0.0479460060668715
0.0509656970360958
0.0534290060526854
0.0552398455112771
0.0562214549533521
0.0561579567606409
0.0548537096629623
0.0521967067858874
0.0482114142189571
0.0430882704788338
0.0371811860931011
0.0309706012339197
0.0249971005147902
0.0197774767129427
0.0157196226773276
0.0130535809908072
0.0117932142913208
0.0117367051856703
0.0125056656228536
0.0136140946034691
0.0145522592150509
0.0148686990349689
0.0142362310440565
0.0124933873637652
0.0096585320407143
0.00591809393196648
0.00159273298217699
-0.00291326440722203
-0.00717281759040893
-0.0107996134080677
-0.0135064112727243
-0.0151499764279616
-0.0157549793578312
-0.0155112378044325
-0.0147431410468942
-0.0138562302653805
-0.0132713512862838
-0.0133591637242035
-0.0143862462132133
-0.0164795899453409
-0.0196110069929785
-0.0235989954619016
-0.0281241780680077
-0.0327555916423845
-0.0369876314571503
-0.040289324028873
-0.0421668918754549
-0.0422365676207107
-0.040298499248069
-0.0363971120706978
-0.0308514324848851
-0.0242423335281553
-0.0173520348827065
-0.0110620878843353
-0.00622601462539611
-0.00353861170643283
-0.00342418819079038
-0.00596124670748862
-0.0108534232807272
-0.0174486633602548
-0.0248032282548811
-0.0317854584385148
-0.037215148745823
-0.040034500827668
-0.0395019383672129
-0.0353887529670707
-0.028142881541217
-0.0189703475144873
-0.00978075111698553
-0.00295471260134928
-0.00092070249425911
-0.00557416951874687
-0.0176264279551519
-0.0360223907658582
-0.057598639738225
-0.0771491748285162
-0.0880128675359614
-0.0831929826969042
-0.0568801209251521
-0.00610648566206921
0.0678477300782837
0.158705275272639
0.255434265031599
0.34363025309536
0.407916136907064
0.434944556976975
0.416354433872624
0.350946166821616
0.245455117120845
0.113618329376058
-0.0263298389127115
-0.155165072689976
-0.256337167234198
-0.318917099332078
-0.339180238651744
-0.320572127849578
-0.272227194081778
-0.206538638672367
-0.136433263563624
-0.0729751973592611
-0.0237471847935894
0.00779283411385391
0.0220332127007992
0.0222517351239385
0.0133195877019958
0.0004035067863465
-0.0120732677315507
-0.0210662170346367
-0.025114353419616
-0.0241825476068158
-0.0192660882838964
-0.0118990017820622
-0.00369077718423054
0.004022802741121
0.0103761860621204
0.0150220786966589
0.0180647060023319
0.0199254410379529
0.0211871487343861
0.0224536005420809
0.0242463422683803
0.0269472033800982
0.0307825424605979
0.0358371724072057
0.0420831710960884
0.0494114556084973
0.0576598489327008
0.066636931973128
0.0761436840811495
0.0859944968441617
0.0960371418456224
0.106169355638372
0.116348523473408
0.126590530829827
0.136954645595923
0.147514068793954
0.158316415598327
0.16934305894971
0.18047840895594
0.191498261775218
0.202080851358854
0.211837328896615
0.220352630523535
0.227225005232097
0.232093675516009
0.234648767244094
0.234624332195485
0.231782010102928
0.225897474993762
0.216762250795869
0.204208637984806
0.188156337192496
0.168669349419106
0.146005398931186
0.120640461169425
0.0932576821804475
0.064699877409719
0.0358940062532956
0.00776197804726234
-0.0188658084205791
-0.0433191821734828
-0.0651282876855007
-0.0840303436713892
-0.0999457363640611
-0.112933183510715
-0.123138417245236
-0.130751157763538
-0.135980352913326
-0.139049325321952
-0.140204256041658
-0.1397252650829
-0.13793097077118
-0.135173106358949
-0.13182347110122
-0.128257582318268
-0.124837160587767
-0.121889544505277
-0.119680156870226
-0.118376676538453
-0.118009919811721
-0.118443164034634
-0.119364632207805
-0.120314642466672
-0.120749992704393
-0.120136573389555
-0.118051163093338
-0.114268521134041
-0.108812185646649
-0.101956308340976
-0.0941784508844056
-0.0860752268315779
-0.0782603183951724
-0.0712662785123299
-0.0654684869109354
-0.0610435128476678
-0.0579665572102141
-0.0560448029034836
-0.0549766827841277
-0.0544227116875357
-0.0540725566409106
-0.0536953533741988
-0.0531650263126406
-0.052458356853924
-0.0516295564721217
-0.0507699580173965
-0.0499642166336367
-0.0492546692397021
-0.0486232418721573
-0.0479957975388788
-0.0472676696173935
-0.0463424952736343
-0.0451712915831316
-0.0437773345152499
-0.0422563654151999
-0.0407503835966601
-0.0394036656314069
-0.0383172085944171
-0.0375188685265205
-0.0369600937435575
-0.0365388242504475
-0.0361370589191912
-0.0356563462016154
-0.0350376888365588
-0.0342618780444808
-0.0333363520289824
-0.032279874125047
-0.0311148713209555
-0.0298713644148427
-0.0285997853757204
-0.0273852223579337
-0.0263536047976812
-0.0256612657836384
-0.0254636781512434
-0.0258669626614615
-0.0268750157440217
-0.0283515190073174
-0.0300152518507957
-0.031477818333352
-0.0323186445505825
-0.0321791102414871
-0.0308509537625895
-0.0283351579893775
-0.0248550325286312
-0.02081869922687
-0.0167389887904093
-0.0131298332578278
-0.010404396431613
-0.00879929535374846
-0.00834157161104176
-0.00886323742358276
-0.0100560918913893
-0.0115505040231428
-0.0129978923918276
-0.0141377753922976
-0.0148352587392958
-0.0150819868787776
-0.0149615987026444
-0.0145887531444678
-0.0140378606896489
-0.0132821207440943
-0.0121632664182804
-0.0104062017268019
-0.00768097319369732
-0.00370003376676145
0.00167395645332577
0.00834079283763472
0.0159237864599094
0.0237952934663167
0.0311658777092466
0.0372195696334797
0.0412658863582467
0.0428754012069676
0.0419706100885181
0.0388558606731593
0.0341845119350675
0.0288724347337428
0.0239709218733238
0.0205103180757895
0.0193233863339819
0.020860131937783
0.0250159111496129
0.031009867621883
0.0373644820681322
0.0420402453398986
0.0427636839232026
0.0375479614081241
0.0253463962301591
0.00671284999258981
-0.015711041900797
-0.0370806378924071
-0.0507687513679604
-0.0493888577641563
-0.0263395218155668
0.0223828336885901
0.0965039958811609
0.190398539151863
0.293049336744061
0.389282161631867
0.462219239659209
0.49654955973071
0.481917904621047
0.415592799511589
0.303660184427992
0.160314423734009
0.00530741846515366
-0.139875388446007
-0.256185194851389
-0.330514657484038
-0.357739121585526
-0.340924346084932
-0.289824378163378
-0.21819925365888
-0.140697793372683
-0.0700463325277502
-0.0150972848637289
0.0199980716617041
0.0355286863250254
0.0351458558093586
0.0243647978131865
0.00904991008392046
-0.00579867077967099
-0.0167792051216364
-0.0223122384250379
-0.0224407497584414
-0.0183603113069019
-0.0118476658839448
-0.00472988490097999
0.0015124919646767
0.00596826430631834
0.00834919337200869
0.00890934839814481
0.00827939224468988
0.0072665261486166
0.00666399783865838
0.00710298128311357
0.00896670941313438
0.0123729648366282
0.017217142922091
0.0232559513856812
0.0302045187071411
0.0378199667800104
0.0459524252903107
0.0545567860874668
0.0636704359857466
0.0733700759724856
0.0837232692153873
0.0947482901545667
0.106390827987176
0.118519988614438
0.130940570265379
0.143415088761927
0.155688105279572
0.167506768072852
0.178634111804643
0.188854333787229
0.197971035501245
0.20579994210947
0.212157275696723
0.216844626508571
0.219631643615004
0.220239421261771
0.21832968737867
0.213506797638442
0.205339721049654
0.193408496469802
0.177373850062682
0.15706102820914
0.132541842478695
0.104195177666982
0.0727276994765635
0.0391434602859198
0.00466194152098929
-0.0294040564675797
-0.0617894773604617
-0.0914107152015145
-0.117466862785793
-0.13949118153775
-0.157348117816306
-0.171184887297046
-0.181356575227231
-0.18834628059771
-0.192696802768633
-0.194961015638723
-0.195669237435748
-0.195307148584956
-0.194297842827164
-0.192984796780029
-0.191616575883337
-0.190337074073961
-0.189185897645858
-0.18811189334232
-0.186999487702574
-0.185703863146623
-0.184088472581143
-0.182057794615637
-0.179579592181113
-0.176693642197484
-0.173506836324079
-0.170176551086086
-0.166884841830132
-0.163806046456142
-0.161070971761044
-0.158732493401684
-0.156739455139754
-0.154926744550021
-0.153027991138225
-0.150713024963622
-0.147645878760694
-0.143552619337337
-0.138283926252797
-0.131856833593641
-0.124463894303976
-0.116445228194152
-0.108227469135745
-0.100241372666975
-0.0928351459791881
-0.0862024292089234
-0.0803417739398034
-0.0750584994448109
-0.0700110625486823
-0.0647947195322343
-0.0590475659926332
-0.0525591964707589
-0.0453601130358097
-0.0377701182819576
-0.0303863164807724
-0.0239969540768175
-0.0194176536836651
-0.0172628152411694
-0.0176863780562433
-0.0201485199972513
-0.0232801532102448
-0.0249156101789729
-0.0223387809828521
-0.0127394722175274
0.00618520332941891
0.0356070510418163
0.0750756452948691
0.122306608499291
0.173343485939279
0.223100550334087
0.266194727655553
0.297891301342432
0.314946806088885
0.316150570626557
0.302442847725995
0.276600292314659
0.242591781028324
0.204782494455339
0.167180837329844
0.132883042906923
0.103795074259205
0.0806296556392213
0.0631131906974303
0.0503066455810085
0.0409465247925371
0.0337371886040478
0.027560049780324
0.021595819701167
0.0153747395392326
0.00877458874685489
0.0019809460294027
-0.00458410142014243
-0.0103628080955796
-0.0147869369413571
-0.0174130135181209
-0.0180440910872719
-0.0168105255146989
-0.0141869599282076
-0.0109354578232447
-0.00798187457167373
-0.00624919199166029
-0.00648294426041523
-0.00910654886073813
-0.0141370706006033
-0.0211766546545562
-0.0294766934787464
-0.0380571539633699
-0.0458570526631121
-0.0518943393081965
-0.0554204969848856
-0.0560607601658107
-0.0539299886818327
-0.0497060883557062
-0.0446315302965957
-0.0404064389697606
-0.0389418607926909
-0.0419645825722406
-0.050505333329182
-0.0643535479281814
-0.0816106673055163
-0.0985025713878605
-0.109602440929536
-0.10855577772867
-0.0892890711986163
-0.0475396914968837
0.0175978351605071
0.10250848808697
0.19867806896704
0.293385616661088
0.371526399910591
0.418329248096972
0.422442476352119
0.378670393851889
0.28962825103053
0.165786438040664
0.0237648760615694
-0.116789175228321
-0.237004554571538
-0.322344337314374
-0.365078202005946
-0.365154378885118
-0.329402238731068
-0.269415920779543
-0.198746077733026
-0.130106442604532
-0.0731950936224346
-0.0334954810077343
-0.0121400976730537
-0.00666768394799763
-0.0123385864180151
-0.0236160200574829
-0.0354653936502352
-0.0442380996146934
-0.0480485473438074
-0.0466846209928766
-0.0411844628580969
-0.033254005909951
-0.0246922263036964
-0.016947976300297
-0.0108721557535619
-0.00666987351855942
-0.00401215891967442
-0.00224206074714098
-0.000605710728991708
0.00154933102793916
0.00464506573497776
0.00882630470344311
0.013988177900612
0.0198554220378522
0.026084708487194
0.032362878424267
0.0384811039927232
0.0443744430480121
0.0501252288726605
0.0559356604976981
0.0620792762222653
0.0688427631703854
0.0764692681725472
0.0851127117229114
0.0948100448114814
0.105475043560867
0.116913189608259
0.128852930233653
0.140985118668655
0.153000745754177
0.164617809123863
0.17559123211094
0.18570435655287
0.194745510599185
0.202477304936957
0.208608675449947
0.212779626737221
0.214566024376713
0.213507312688956
0.209155037589652
0.201135822783551
0.189219567813964
0.173382064455092
0.153850891476504
0.131124598398891
0.105958187633915
0.0793127653280398
0.0522733400739447
0.0259449239661055
0.00134190274255457
-0.0207121996680877
-0.0396587362817129
-0.0552406459423998
-0.0674978617570545
-0.0767249061197106
-0.0834000625733391
-0.0880988561389501
-0.0914055369472117
-0.0938354715059616
-0.095779120215109
-0.097474574585735
-0.0990104896767314
-0.100355274967897
-0.101402972940346
-0.102023281177186
-0.10210418246636
-0.101580413838978
-0.100447071588632
-0.0987616754242424
-0.0966381911792312
-0.0942339209553969
-0.0917278636322513
-0.0892898262025472
-0.0870437174875361
-0.0850339979656378
-0.0832075941225144
-0.0814215987105982
-0.0794792407314665
-0.077185813654852
-0.0744074773106369
-0.0711134161237366
-0.0673871307803597
-0.0634035936127536
-0.0593811802486411
-0.055525816409588
-0.0519863028262041
-0.048833943981282
-0.0460692306277611
-0.0436480142422871
-0.0415134778504485
-0.0396201750512916
-0.0379418183281192
-0.0364626887211723
-0.0351599414712309
-0.0339876274040181
-0.0328716625360745
-0.0317192993277302
-0.0304397290804332
-0.0289675881626524
-0.0272804436116011
-0.0254045704636101
-0.0234083761774405
-0.0213872618386595
-0.0194460760755958
-0.0176851032409114
-0.0161927979505997
-0.015044166739149
-0.0142999370749097
-0.0140008987232544
-0.0141550206884451
-0.0147206041990554
-0.0155935834734686
-0.0166080979052669
-0.0175555810790185
-0.0182204904377665
-0.0184239319046696
-0.0180630526645125
-0.0171353048665229
-0.0157413668733298
-0.0140664570656284
-0.0123449982101773
-0.0108168170024003
-0.009683877704587
-0.00907538300897376
-0.00902685566791428
-0.00947632306984297
-0.010278208462004
-0.011232867902057
-0.012126884890838
-0.0127766316894764
-0.013065994866445
-0.012969444902313
-0.0125544235195624
-0.0119621028644527
-0.0113715314114752
-0.0109568585104291
-0.010848944542969
-0.0111108124462334
-0.0117320731974021
-0.012642242554304
-0.0137380927017326
-0.0149167341794546
-0.0161047432907016
-0.0172750336869349
-0.0184473994772603
-0.0196745072107037
-0.0210202018750936
-0.0225389652945679
-0.0242633062719316
-0.0262008612147946
-0.0283375529144617
-0.030639962525387
-0.0330507303882385
-0.0354751933491993
-0.0377637585717436
-0.0396998686612249
-0.0410051343182619
-0.0413699044560054
-0.0405097611023625
-0.0382385373580352
-0.0345399413379521
-0.0296162562709175
-0.0238960618779039
-0.0179929744755871
-0.0126205671160885
-0.00848005321707513
-0.00614330493185338
-0.00595336932685741
-0.0079592189159146
-0.0118933898195743
-0.0171929076819382
-0.0230578216228529
-0.0285394194225647
-0.0326517725929311
-0.0345033866592489
-0.0334465129550334
-0.0292365038882967
-0.022181506076601
-0.0132469038990458
-0.00406590012501239
0.00319460327587627
0.00614853687842611
0.00268601746935191
-0.00840277036800374
-0.0267878082637751
-0.050107623644521
-0.0738116599031286
-0.0914960135373538
-0.0958079647805208
-0.0798603817606638
-0.0389386347080411
0.0278576598730133
0.116469903129882
0.21763362086538
0.317779058019332
0.401076117640909
0.452318929695689
0.460072935835205
0.419349856052801
0.333102636054047
0.212068840273604
0.0728956663333414
-0.0650579080583439
-0.183476313495903
-0.268486690920849
-0.312914302646835
-0.316952175919815
-0.28724336331778
-0.234765577600212
-0.17214523101282
-0.1110704854441
-0.060342834685942
-0.0248683828105411
-0.00562339933751896
-0.000405211873424412
-0.00504480356794836
-0.0147253363032996
-0.0251064287838178
-0.0330645669140986
-0.0369873553620165
-0.0366705693673091
-0.0329409667178701
-0.0271570429210509
-0.0207287627916591
-0.0147580546055249
-0.00984982032429988
-0.00609263764367547
-0.00316981894604418
-0.000540921243140832
0.00236791962467762
0.00601293913431975
0.0106471102901116
0.0163032970725095
0.0228321621531273
0.0299718268291737
0.0374256405950673
0.0449297898804562
0.0523006657843923
0.0594598596714683
0.0664399916839202
0.0733760949935887
0.0804855160636928
0.0880365765570685
0.0963055050055867
0.10552397442701
0.115825000619157
0.127199845751394
0.139479378777673
0.15234810847811
0.165388868508214
0.178144934518899
0.19017951250935
0.201113884613127
0.21063499178685
0.218476536270105
0.224388338484372
0.228111764268823
0.229373952924704
0.227904014964863
0.223465567236263
0.215895407081876
0.205138089737787
0.191268883411952
0.174501184925739
0.155178017926171
0.133750295453621
0.11074677662035
0.0867417781036504
0.0623264393646517
0.0380873744980057
0.0145928818106331
-0.00761740673300063
-0.0280462238219082
-0.0462613659580765
-0.0619278244958317
-0.0748428290854507
-0.0849623754943392
-0.0924078365832702
-0.0974465920563611
-0.100449018924634
-0.101832027790374
-0.102003370182988
-0.101319741724729
-0.100065995423773
-0.0984549310251771
-0.0966402884789224
-0.0947325647238101
-0.0928092261640344
-0.0909164318244673
-0.0890653642810595
-0.0872297160384261
-0.0853505400831496
-0.0833510815056253
-0.081158994880672
-0.0787287642552638
-0.0760555647551791
-0.0731746451906319
-0.070146705482255
-0.0670364678835048
-0.0638948240921101
-0.0607525212430913
-0.0576265365844101
-0.0545329668833034
-0.0514966759860544
-0.048550152463768
-0.0457207017774084
-0.0430124345084099
-0.0403934652407072
-0.0377971417020371
-0.0351397634656199
-0.0323494606823371
-0.0293957772149278
-0.0263094741247446
-0.0231864840007591
-0.0201758012790986
-0.0174553962504082
-0.0152019740656382
-0.0135605087027436
-0.0126192132135609
-0.0123950605357044
-0.0128332628103573
-0.0138207541733257
-0.0152095775188663
-0.0168430573696994
-0.0185773792828974
-0.0202938630093176
-0.0219014134881265
-0.0233323935063663
-0.0245371211714919
-0.0254819592263707
-0.0261537086843685
-0.0265692394733366
-0.0267851337706422
-0.0268995907589553
-0.027039960803158
-0.027334515869002
-0.0278745138235774
-0.0286787211438485
-0.0296739703287828
-0.0307007845952938
-0.0315443016014708
-0.0319815590815168
-0.0318307284970242
-0.0309883201737768
-0.0294461526110263
-0.0272879283451127
-0.0246715967248652
-0.0218055688827564
-0.0189243473439098
-0.0162648372877171
-0.0140417980577257
-0.0124215373983175
-0.0114966218975736
-0.0112684400972827
-0.0116455950839913
-0.0124626366856697
-0.0135168720367199
-0.0146142409598408
-0.0156115047747643
-0.016442487642806
-0.0171204974846817
-0.0177161375131492
-0.0183175124894094
-0.0189856729383986
-0.0197196942740545
-0.0204424244361062
-0.0210111407243425
-0.021249847546374
-0.0209942751715155
-0.0201381889201134
-0.0186702932461858
-0.0166936811157901
-0.0144232293979226
-0.012160086843055
-0.0102465638095377
-0.00900914612910821
-0.00870089142988563
-0.00945551197108707
-0.0112631943838357
-0.0139733434215875
-0.0173235514319667
-0.0209886490751757
-0.024639648384741
-0.0280003986996962
-0.0308902391922976
-0.033243791467952
-0.0351036978527295
-0.0365876239274962
-0.0378361374267283
-0.0389522353351176
-0.0399458724417171
-0.0406977772171746
-0.0409556777713634
-0.0403715225719712
-0.0385792850980173
-0.0353005553214965
-0.0304533227736022
-0.0242334115051149
-0.017141546756807
-0.00994182994197307
-0.00355545243571662
0.00108918716377267
0.00321762047617296
0.00234749365470125
-0.00162272896055766
-0.00838661790619558
-0.0172604728459297
-0.0272574518339767
-0.0371894285897888
-0.04578816515939
-0.0518471861405449
-0.0543898290213191
-0.0528615987080362
-0.0473262075560617
-0.0386207407472973
-0.0284064594596933
-0.0190485375207753
-0.0132781093353059
-0.0136350663828609
-0.0217542895309184
-0.0376280661326085
-0.0590338720047279
-0.0813375942622354
-0.0978490331193559
-0.100810837514219
-0.0829521776466812
-0.0393626101415832
0.0307144330203314
0.122651538101332
0.226216994254489
0.326636078676793
0.406914021944603
0.451055242793808
0.447508968247573
0.39200977833432
0.289038921209717
0.151425668646252
-0.0019240413322927
-0.14967575126352
-0.27221170269646
-0.355266913077471
-0.392221272459314
-0.384613177641213
-0.340925869931185
-0.274114273122651
-0.198579518077756
-0.127324179730604
-0.0698637306785501
-0.0312017414212934
-0.0118847295296142
-0.00891272178300465
-0.0171407768010807
-0.0307777615777337
-0.0446541236034735
-0.0550537747322312
-0.0600448831074463
-0.0593653795714061
-0.0539995039081421
-0.0456140058416013
-0.0360106342619343
-0.0267076375106284
-0.0187042552507599
-0.0124260891863068
-0.00780900302070574
-0.00446060741949849
-0.00183972038479244
0.000591054890837245
0.00326410355405296
0.00646189761471664
0.0103190302744243
0.0148543832743187
0.0200158510156186
0.0257240432040373
0.031907437789646
0.0385267945959687
0.0455894110093796
0.0531538112168871
0.0613240930944921
0.0702324070421513
0.0800093884600093
0.0907460080401074
0.102454864441008
0.115041958902302
0.128299314355269
0.141923999360508
0.155561649480959
0.168864858357281
0.181551296861248
0.193445193311453
0.204489996015758
0.214728844673244
0.224259836207656
0.233180856278974
0.241540875074888
0.249310433159574
0.256375310167698
0.262547305747226
0.267578552241224
0.271164598698485
0.2729289218058
0.272396133332728
0.26897666105364
0.261992875210763
0.250768634471425
0.23478139426499
0.213846680953253
0.188281339449339
0.158985562098446
0.127399446351086
0.0953244782705044
0.0646425839638871
0.0369997216443148
0.0135343231549645
-0.00528146367524015
-0.0196524594370266
-0.0303286142556174
-0.0383718917886237
-0.0448842057530339
-0.050761750006006
-0.0565281659668969
-0.0622758296284948
-0.067717685927315
-0.0723273154712291
-0.0755268420179067
-0.0768741337046972
-0.0762040337410487
-0.0736921565558157
-0.0698305533160417
-0.0653268681965811
-0.0609566682398331
-0.0574078955868585
-0.0551548998437327
-0.0543884121883388
-0.055010933489299
-0.0566895866849583
-0.0589457097742519
-0.061255823934597
-0.0631424315587456
-0.0642421443876934
-0.0643477401334374
-0.0634259118022719
-0.0616131407724999
-0.0591906753846687
-0.0565390307021047
-0.0540744356765756
-0.0521741763344215
-0.0511033474515866
-0.0509596627778732
-0.0516528726676977
-0.0529291190469564
-0.0544387424634199
-0.0558321326667495
-0.0568575295676765
-0.057431955813519
-0.0576633262359741
-0.0578159580638723
-0.0582283362251926
-0.0592059136451902
-0.060919164142895
-0.0633362221680332
-0.0662104350953617
-0.0691281879749147
-0.0716052026446669
-0.0732048250188966
-0.0736442768925464
-0.0728578559540667
-0.0709998657271632
-0.0683903751449326
-0.0654258528584678
-0.0624863786085703
-0.0598678290797014
-0.057753679481815
-0.0562239132473463
-0.0552856905523069
-0.0549064997704795
-0.0550353551976107
-0.0556072635357188
-0.0565355677693932
-0.0577021737966293
-0.0589557925901578
-0.0601239828849526
-0.0610380026729543
-0.0615629808567016
-0.0616225096826462
-0.0612082839599921
-0.0603715027254774
-0.0592004998746919
-0.0577944721016807
-0.0562435397200809
-0.0546210110923583
-0.0529875079233639
-0.0514018664092219
-0.0499321030426316
-0.0486607489515327
-0.0476811105295955
-0.0470835596577343
-0.0469336568897371
-0.0472467935895958
-0.0479665221745939
-0.0489545576534604
-0.0499984701159007
-0.0508385396076663
-0.0512098305249251
-0.0508913084361583
-0.0497517134186521
-0.0477817587455885
-0.045103966942962
-0.0419555724093156
-0.0386463833519332
-0.0355006109315406
-0.032796529311476
-0.0307181596204947
-0.029328955602221
-0.0285709120369305
-0.0282864614834243
-0.0282566864545028
-0.0282477492868647
-0.0280570810770141
-0.0275511331612185
-0.0266876919123277
-0.0255186682864831
-0.0241739653619437
-0.0228321305102059
-0.0216867725858308
-0.0209175707503915
-0.0206713198698759
-0.0210536319822302
-0.0221277536124877
-0.0239148140673932
-0.0263900949790777
-0.0294723965077176
-0.0330076010424087
-0.0367519088551421
-0.0403633927401344
-0.043411121346044
-0.0454085079490825
-0.0458721216808007
-0.0444002198004867
-0.0407585169530921
-0.0349559892606824
-0.0272921924663847
-0.01836047714532
-0.00899871691232482
-0.000189697817588816
0.0070752556320742
0.0119467375838943
0.0138551215551211
0.0126114367223547
0.00845458218637416
0.00203874464195175
-0.0056351342365484
-0.0133335989335249
-0.0197389424405897
-0.0236219293347362
-0.0240310296136435
-0.0204865218609127
-0.0131566751988523
-0.00297748028631384
0.00833541558980502
0.0184346188861016
0.0246823828638528
0.0246798261071695
0.016923191474454
0.00146725149106073
-0.0195702364861817
-0.041844139996619
-0.0591079197785395
-0.0640978163209753
-0.0499164401272619
-0.011708674029494
0.0517106857227741
0.136693382942818
0.234452767366054
0.331875338190448
0.413467096102897
0.464158021220541
0.47241310230274
0.432930157623111
0.34821537149577
0.228546237122475
0.0902222492770551
-0.0475387159703298
-0.166322200025625
-0.251954085411141
-0.296851968879187
-0.300819043145375
-0.270242568016097
-0.216055503309379
-0.151069808208804
-0.0873479150858654
-0.0341633608012311
0.00312539884748577
0.0232240455013932
0.0282338097423193
0.0224665055866806
0.0110900766502973
-0.00108703411607213
-0.0104789878960586
-0.0151371645186041
-0.0147320822169398
-0.0102032746500812
-0.00322447639331853
0.00436180429473463
0.0110131712967168
0.0157809599661079
0.018404989658685
0.0192338711513221
0.0190267877051302
0.0187044902297057
0.0191120814538321
0.0208400642494803
0.0241294948015238
0.0288667225082216
0.0346560095083525
0.0409458715446358
0.0471780696638259
0.0529270244510608
0.0580016521975847
0.0624903061011861
0.0667412195915214
0.0712837665943652
0.0767078585783309
0.0835276253778764
0.0920591104296667
0.102338846751762
0.114101168598158
0.12681888037208
0.139797488293057
0.152300960162155
0.163679853822934
0.173472513505514
0.181457048376877
0.187644157394051
0.192215229060865
0.19542289481958
0.197479504511183
0.198461201875215
0.198251050339979
0.19653496997781
0.19285142371122
0.186683065395255
0.17756909135388
0.165212921191021
0.149561690297609
0.130841158940256
0.109540354799995
0.0863521630033676
0.0620862162402704
0.0375758296506458
0.0135994302431646
-0.00917066585581228
-0.030190116066827
-0.0490426874924686
-0.0654311462468359
-0.0791702781893614
-0.0901878052181345
-0.098531778095261
-0.104377287935036
-0.108023031903324
-0.109869977092978
-0.110379474585514
-0.110015137248802
-0.109179290158195
-0.108158291230899
-0.107089929818799
-0.105960831511352
-0.104634409099831
-0.102902822653246
-0.100551293853386
-0.0974207820274226
-0.0934558747129214
-0.0887286834692326
-0.083435517042865
-0.0778692119133725
-0.0723744321575367
-0.0672952871098365
-0.0629245999975791
-0.0594627481327811
-0.0569916449189809
-0.0554664849428122
-0.0547247968373175
-0.054509832964611
-0.0545040634705399
-0.054368711252141
-0.0537861330260382
-0.0525021681860342
-0.0503645807026262
-0.0473518112659864
-0.0435848022312841
-0.0393153081365038
-0.0348880282019076
-0.0306808902300074
-0.0270356692623256
-0.0241962045136511
-0.0222707215429461
-0.0212277676016059
-0.0209247253688422
-0.0211580229313176
-0.0217185246011338
-0.0224356430805967
-0.0231989200196979
-0.0239542359877135
-0.024680639370934
-0.0253600396950416
-0.0259534919142779
-0.0263940344563259
-0.0265986231010928
-0.0264936902523114
-0.0260434868844289
-0.0252695968484175
-0.0242537755477883
-0.0231227106187929
-0.0220197812553339
-0.021073023413257
-0.0203690051726961
-0.019939390166726
-0.0197620948610399
-0.0197741088642673
-0.0198899340478638
-0.0200191441160132
-0.0200787101493702
-0.0199992877186156
-0.0197276783451909
-0.0192286102661842
-0.0184877585658161
-0.0175158704229363
-0.0163524912265519
-0.0150676685755039
-0.0137606216501348
-0.0125548084862989
-0.0115887203176886
-0.0110015227922118
-0.0109130561893904
-0.0113988838596821
-0.0124626715507248
-0.0140099405353607
-0.0158292771501443
-0.0175891549054713
-0.0188592565488931
-0.0191624632327097
-0.0180562403709962
-0.0152310921809275
-0.010602811625571
-0.00436958001838458
0.0029910601190995
0.0107956326939295
0.0182871250412749
0.0247940108715377
0.0298720554109947
0.0333883550051544
0.0355246544240385
0.0367024610961675
0.0374561035818846
0.0382928661913093
0.0395778712513306
0.0414682044135488
0.0439030419990016
0.0466414823998373
0.0493312422878475
0.0515892478684343
0.0530772041507367
0.0535591975563559
0.052933006846036
0.0512317581678387
0.0485978940075963
0.0452367179607444
0.0413608618114453
0.0371386204905543
0.0326578744518482
0.0279141153683905
0.0228270257772794
0.0172855024194625
0.0112155659784243
0.00465900030305007
-0.00215636381226331
-0.00877866502518045
-0.014549570491167
-0.0186914486924116
-0.0204603877450657
-0.0193384345750251
-0.0152176128707663
-0.00851822998013496
-0.000192179815289374
0.00840947108829948
0.0157831152687244
0.0205714190051523
0.0218310784181993
0.0191949361583519
0.0128894632054823
0.00361613952903497
-0.0076542437064934
-0.0199058852685688
-0.0322579668542158
-0.0440621999413015
-0.0549121805240017
-0.0645867686855176
-0.0729651138631012
-0.0799515614677327
-0.0854375324921116
-0.0893104331610178
-0.0915026685830875
-0.0920611633144926
-0.0912116763179784
-0.0893932438396214
-0.0872455347775663
-0.0855437787134852
-0.0850893846787108
-0.0865762705761616
-0.0904603092825025
-0.0968598651807925
-0.105508438414249
-0.115768008477822
-0.126698537719272
-0.137170419202221
-0.146004739342107
-0.152129120612961
-0.154739965081908
-0.153460758803036
-0.148478918907194
-0.140632240871101
-0.131405524547753
-0.122795649051264
-0.117015966575514
-0.116041791861614
-0.121045713132976
-0.131825229472571
-0.146370168224609
-0.160734615646903
-0.169351624346282
-0.165852111276922
-0.14432982400986
-0.100855375150269
-0.0349201555003737
0.0495734073658778
0.144130593763979
0.236511702201861
0.312598932406596
0.359000155596459
0.365861100255164
0.329220192647087
0.252274294410743
0.145147493627292
0.0231255018556204
-0.0962684985141884
-0.196658488600699
-0.265843333988195
-0.29777291759002
-0.293091881896
-0.258261265874974
-0.203611826437951
-0.140889258438155
-0.0808880736889005
-0.031658093879923
0.00243915108538181
0.0207797772829871
0.0257878430557437
0.0217888743420119
0.0137297003261962
0.00605081591686878
0.00190714037637959
0.00282026318418799
0.0087395036043918
0.0184115251292285
0.029918489507136
0.0412416998663952
0.0507330283003688
0.0574187130822054
0.0611079166326561
0.0623219700402266
0.0620920918166969
0.0616892830509155
0.0623498059462217
0.065047003993339
0.0703415655410358
0.0783235777393108
0.0886439769993466
0.100620471062268
0.113392944371665
0.126096228277809
0.138015944576728
0.148697851597174
0.157992575036472
0.16603297668308
0.173156471291388
0.179795507402276
0.186363864084669
0.193163891325486
0.200331638259784
0.207825736005915
0.215455257490255
0.222934182422389
0.229946616517789
0.236207223632358
0.241504521344126
0.245719819416362
0.248820547247639
0.250832102874864
0.251795891611887
0.251722571582881
0.250549444607076
0.248110467486985
0.244126776002732
0.238224082768392
0.229979682869614
0.21899583008576
0.204989134697919
0.187879465021642
0.167858593808335
0.145419942680481
0.12133705318901
0.0965895671437648
0.0722492191151907
0.049350131400478
0.0287725021569316
0.0111637395381733
-0.00309240189618299
-0.0138645486829907
-0.0212381877800312
-0.0254760997726738
-0.0269875345752562
-0.0263071431977923
-0.0240755394764566
-0.0210107985060876
-0.0178634207547037
-0.0153529875540209
-0.0140902932867467
-0.0144935539653607
-0.0167117084017013
-0.0205714500765942
-0.0255657493462754
-0.0308982489347497
-0.0355892808094492
-0.0386364180360501
-0.0392077158757738
-0.0368320221136263
-0.0315417821027751
-0.023924559859376
-0.0150543510994869
-0.00630273399205075
0.000934095796249538
0.00552643482180693
0.00684384892695679
0.00486829093810456
0.0001620792747645
-0.0062922840432932
-0.0133304030059237
-0.0198586838041543
-0.0250640144058848
-0.0285424191557608
-0.0303324389776068
-0.0308604236150182
-0.0308205716344013
-0.0310211572467882
-0.0322297534694142
-0.0350451053757146
-0.0398136225729041
-0.046597361581653
-0.0551908482304071
-0.0651775649190727
-0.0760129076347674
-0.0871176683187954
-0.0979643171794247
-0.108138868813478
-0.117365840818161
-0.125493287943209
-0.132446933250395
-0.138172612679263
-0.142590098043994
-0.145576736743349
-0.146987807200846
-0.146706614709852
-0.144706434650288
-0.141102026891918
-0.13617140079894
-0.130337322979939
-0.124109978407251
-0.118003924674338
-0.112450694983513
-0.107730436243438
-0.103940716380781
-0.101009407798126
-0.0987451158302418
-0.0969078657966513
-0.095278424273661
-0.0937075469329284
-0.0921346097255033
-0.0905751305012467
-0.0890854520272778
-0.0877181772844507
-0.0864829858758533
-0.0853246614009058
-0.0841247384329704
-0.0827264262657235
-0.080975615814531
-0.0787654435287827
-0.0760700932902665
-0.0729565946020822
-0.0695706145270834
-0.0661008140911365
-0.0627328244699082
-0.0596061642139918
-0.0567854289134066
-0.0542523085718076
-0.0519192623854314
-0.0496604365072576
-0.0473515204432132
-0.044908216612079
-0.0423132090947817
-0.0396241750514021
-0.0369603141810752
-0.0344711928277699
-0.0322976213544661
-0.030537413457242
-0.0292273071955735
-0.028346104978181
-0.0278357561965207
-0.0276304358936603
-0.0276814290458864
-0.0279682014492544
-0.0284918221731646
-0.0292535695638002
-0.0302269560822403
-0.0313339826588556
-0.0324355668567362
-0.0333422949409383
-0.0338460844989656
-0.0337671462711998
-0.0330049712911668
-0.0315786232328401
-0.0296422762896179
-0.027467581742159
-0.0253939360305749
-0.0237580354060193
-0.022821448554827
-0.0227162973037141
-0.0234235858464154
-0.0247880181446678
-0.0265611800428944
-0.0284562329770097
-0.0301950815044401
-0.0315342097985988
-0.0322661107944767
-0.0322052318053352
-0.0311754082371066
-0.0290157539981251
-0.0256132632946743
-0.0209566426221212
-0.015193502053625
-0.00866766345964628
-0.00191718394286691
0.00437519030211015
0.00947374580164468
0.0127071908655514
0.0135898765541476
0.0119255583650423
0.00787630342989702
0.00198332067973751
-0.00487047676825691
-0.0115633320328018
-0.0169041869151206
-0.0198587554876646
-0.0198045876001344
-0.0167672459099109
-0.0115729823329939
-0.00584851398488995
-0.00181286230981768
-0.00184274051980913
-0.00784850221481704
-0.0205624194576062
-0.0388996380661781
-0.0595859087581406
-0.0772370279668875
-0.0850107168708538
-0.075832622986009
-0.0440418084333179
0.0128570780712852
0.0927604839946335
0.188297422313423
0.287269030152789
0.37431425212621
0.43361127507316
0.452108269476844
0.422548927001131
0.34550708693165
0.229819375344367
0.091185388255947
-0.0508067989856366
-0.176529584715405
-0.270094602560405
-0.322155032295365
-0.331125932551971
-0.302667439865396
-0.247724448047592
-0.179734284849576
-0.111732139144718
-0.0540023326532033
-0.0126957805627707
0.0104573984227287
0.0174821540680409
0.0128690766231944
0.00206493853458078
-0.00988680353603391
-0.0192963135786137
-0.02425471004794
-0.0245642851594225
-0.0213015785778936
-0.0161966199810472
-0.0110129454299466
-0.00707213883411127
-0.00500105491519266
-0.00470990491185293
-0.00555298206798277
-0.00659177931475425
-0.00687453462725205
-0.00566177507523348
-0.00255572278230715
0.00247661759261599
0.0091692831035541
0.0170771976871519
0.0257101319159969
0.0346470241331929
0.043610132756057
0.0524935284181225
0.0613526146677389
0.0703679162476787
0.0797969863293838
0.0899247280984828
0.101017474318497
0.113282392086538
0.126832636836577
0.141660047540773
0.157619452264281
0.174429584456117
0.191693641162828
0.208937852807477
0.225660987287545
0.241383958461328
0.255688357212682
0.268235895063066
0.278766037214921
0.287074499194062
0.292979469198269
0.296285260541633
0.296754757800505
0.294101757436422
0.288010726240568
0.278184337672227
0.264410503186234
0.246634038481752
0.225016271475514
0.199969155587464
0.172157108534089
0.142467239587422
0.11195423657986
0.0817681315113429
0.0530714170697486
0.026948888996648
0.00431283503598493
-0.0141899208106678
-0.0282556427379265
-0.0379674596335024
-0.0437885598468345
-0.0464977061323996
-0.0470739232786528
-0.0465500126100793
-0.0458621088505257
-0.0457234305389403
-0.0465452117914583
-0.0484178134724133
-0.051152016971368
-0.0543672371567178
-0.0576032557442243
-0.060428045117793
-0.0625177061342092
-0.0636946598799724
-0.0639239049731918
-0.0632796076111428
-0.0619008842075246
-0.0599542022143735
-0.0576118700943998
-0.0550458628192426
-0.0524284915274778
-0.0499292453982557
-0.0477006888109669
-0.0458531962504249
-0.0444252217993407
-0.0433601489239903
-0.0425012964107896
-0.0416131486633471
-0.0404299791726038
-0.0387243495086933
-0.0363798217416424
-0.0334471507430305
-0.0301635940270099
-0.0269224078482968
-0.0241935784186343
-0.0224135351748238
-0.0218746239267781
-0.0226484332491498
-0.0245681556618218
-0.0272766277268564
-0.0303254029134171
-0.0332943685906156
-0.0358968305939023
-0.0380424811686581
-0.0398460380967592
-0.0415858370962467
-0.0436284356312996
-0.0463398075373872
-0.0500018966640881
-0.0547480379109016
-0.0605250775795718
-0.0670857619841092
-0.0740121371556819
-0.0807679844511804
-0.0867744261847411
-0.0914978568818951
-0.094534918089471
-0.0956775985450875
-0.0949443721492724
-0.0925706166796178
-0.0889613207648202
-0.084617821768105
-0.0800549807330707
-0.0757248426995023
-0.0719588197387292
-0.068935208776077
-0.0666742709163635
-0.0650595474973002
-0.0638809043080991
-0.0628914313358439
-0.0618672636552291
-0.0606580449367177
-0.0592174530377919
-0.0576080700163764
-0.0559815258193997
-0.0545410466253485
-0.0534972294984923
-0.053027913861519
-0.0532496279781141
-0.0542028528161232
-0.0558487977199516
-0.0580737784399555
-0.0606991305585858
-0.0634980397331092
-0.0662225854038896
-0.0686423658802366
-0.0705905351545627
-0.0720067534985123
-0.0729631520420199
-0.073661368371641
-0.074395916427526
-0.0754891732704712
-0.0772125586181189
-0.0797138346625626
-0.082970046353082
-0.0867795508108482
-0.0907967238609493
-0.094602177216331
-0.0977925040285761
-0.100068624139318
-0.101301545335792
-0.101558725779427
-0.101082410392633
-0.100221782932732
-0.0993314589234102
-0.098657630031201
-0.0982383087763811
-0.0978443226665384
-0.0969821174164407
-0.0949678731470955
-0.0910660404474392
-0.0846672760896238
-0.0754659665763452
-0.0635917166143686
-0.0496561360924942
-0.0346956240016408
-0.0200173740228346
-0.00698098350140115
0.00323643161669972
0.00984215439887618
0.0125585856004384
0.0116632519992509
0.00793832777602154
0.00254542838418269
-0.00315015005874847
-0.00778070315787669
-0.0101822992310207
-0.00959037533766236
-0.00580969778114768
0.000663439048549807
0.008601042906597
0.0161288384211616
0.0209770526731648
0.0209120801547674
0.0143193439267164
0.000849672145452023
-0.0180143022550259
-0.0386502710289823
-0.0554214093646402
-0.0613523709087921
-0.0493620461769123
-0.0139064889699414
0.0472739273468439
0.131727166602156
0.231633112278941
0.334270720089087
0.423734720118396
0.483712051905003
0.500801653713112
0.467624324619478
0.384914881180797
0.261966871566402
0.115189624875555
-0.0349620654614985
-0.167969713221176
-0.267173253948843
-0.32269650346741
-0.332744486514262
-0.303104086004856
-0.245143348452876
-0.1729343576546
-0.100248016410221
-0.038087413531462
0.00680305244209506
0.0323085178385188
0.0403234566702771
0.0354620701463752
0.0235038003154911
0.00995439033862321
-0.00100109909921348
-0.00702063595551946
-0.00761253052993738
-0.00374609396965431
0.00275774520435884
0.00987273757034763
0.0159017209618658
0.019808541330914
0.0213213228609552
0.0208368000279094
0.0191927100460925
0.0173896636227929
0.016337030217652
0.0166753181375285
0.0186985075847344
0.0223715836122235
0.0274170281331236
0.0334328997415944
0.0400055451457314
0.0467904032865872
0.0535504981613624
0.0601580254489393
0.0665743627361032
0.0728253542007203
0.0789833843760164
0.0851597156703197
0.091503811168034
0.0982028798490043
0.105474747215333
0.11354962736102
0.122640446662561
0.132905660225359
0.144411403705121
0.157100302458105
0.170772492474834
0.185081506363443
0.199544861563536
0.21356721998656
0.226473112480371
0.237546252367874
0.246072910354092
0.251387224471477
0.25291655923662
0.250225202428313
0.243054658008388
0.231358162852133
0.215325729351242
0.195394651236266
0.172240090972877
0.146741777360243
0.11992579610976
0.0928842441651287
0.0666795621654447
0.0422443650785716
0.0202910290851515
0.00124685575955063
-0.0147714856649865
-0.0279373453118081
-0.0386506926166536
-0.0474455615626643
-0.0548882523430092
-0.0614864995965461
-0.0676249980859187
-0.0735353251196393
-0.0793007324794963
-0.0848895224108446
-0.0902051198547341
-0.0951374060085529
-0.0996000325627459
-0.103543393774821
-0.106941758232306
-0.109762670957803
-0.111933393911597
-0.11332035588735
-0.11373306508368
-0.11295548761274
-0.110798456114017
-0.107159253397184
-0.102071255218197
-0.0957282117744652
-0.0884739460298795
-0.0807574793248394
-0.0730633941509879
-0.065834417326805
-0.0594050227164124
-0.0539606426862893
-0.049528812085536
-0.0459997454796933
-0.0431675698627112
-0.040781047003314
-0.0385935446507096
-0.0364045601881654
-0.0340876790090881
-0.0316019425481721
-0.0289857586283936
-0.0263353580770269
-0.0237731371234635
-0.0214138756431329
-0.0193375878656509
-0.0175761132052035
-0.0161167334416196
-0.014920985699947
-0.0139518411966557
-0.0131992090703443
-0.0126936342502857
-0.0125014756272744
-0.0127009802355538
-0.0133456856239881
-0.0144270683799734
-0.0158500744678973
-0.0174320996777599
-0.0189290399836508
-0.0200837010069234
-0.020685012865884
-0.0206231170337205
-0.0199259927611257
-0.0187672468446607
-0.0174409809411731
-0.0163072241942528
-0.0157188941424548
-0.0159466633700277
-0.0171194976285932
-0.0191951575097558
-0.0219675601741107
-0.0251088535616936
-0.0282358817168236
-0.0309853250530385
-0.0330802404737575
-0.0343732980823856
-0.0348582503375594
-0.0346496888380863
-0.0339396144609264
-0.0329450393673467
-0.0318617534497282
-0.0308353646661595
-0.0299536700511966
-0.029257271113699
-0.0287604840177357
-0.0284729113209145
-0.0284132988595418
-0.0286109011883534
-0.0290947312153937
-0.0298763497567327
-0.0309351514073886
-0.0322146014085824
-0.0336333831221933
-0.0351088474209191
-0.0365846103131081
-0.0380521606314314
-0.0395585061527133
-0.041196718464448
-0.0430814034782432
-0.0453150555721224
-0.0479537012666089
-0.0509813977890605
-0.0543025210590014
-0.0577572329712016
-0.0611586711879502
-0.0643418708386119
-0.0672077106320619
-0.0697440628082179
-0.0720126577079902
-0.0741023176325546
-0.076062473061683
-0.0778398500974154
-0.0792424767834637
-0.0799483594677671
-0.0795635401258157
-0.0777194176770089
-0.0741863616454573
-0.0689735441024544
-0.0623859609750585
-0.0550189165617316
-0.0476852986558877
-0.0412873585177236
-0.0366577843729943
-0.0344014660570408
-0.0347685753948503
-0.0375825254710015
-0.0422355783672778
-0.0477536219909679
-0.0529227078654928
-0.0564642637965347
-0.0572421177874552
-0.0544800365431928
-0.0479616727764951
-0.038176434050033
-0.0263684231296384
-0.0144464091737714
-0.00472554589054843
0.000501236396597881
-0.000476178493517072
-0.00817862511196248
-0.0214160448381476
-0.0370087969937463
-0.0499044939601629
-0.0537922790078279
-0.0422175726298135
-0.0100655283013003
0.0448596705399115
0.12053761137596
0.210119342061755
0.302316563515798
0.382909129985289
0.437208390044936
0.453023651848103
0.423465674427022
0.34886662796112
0.23724669624975
0.103097948781176
-0.0353002020452528
-0.159410665439221
-0.253955608956663
-0.30958396217974
-0.324115755804667
-0.302194972151215
-0.253593324137038
-0.19070419174926
-0.125883745033299
-0.0692327882015144
-0.0272155895026394
-0.00225453625524695
0.00680323829222645
0.00362259448942342
-0.00693094991304542
-0.0200238051497635
-0.0317719930655549
-0.0397307444826785
-0.0429623580704618
-0.0417781615237066
-0.0372964535335716
-0.0309608490812879
-0.0241327910096166
-0.0178237359776243
-0.0125824600232716
-0.00851328020220872
-0.00537853232474903
-0.0027343793205103
-5.90635693949288e-05
0.00314975478068635
0.00731415430582634
0.012744657969718
0.0196267739775416
0.0280159145999588
0.0378372822963507
0.048893051735936
0.0608815694317709
0.0734315279264311
0.0861494313590026
0.098673478325115
0.110723447096152
0.122135615608918
0.132874444427325
0.143018000606601
0.152720468348745
0.162160694691558
0.171488814950025
0.180782770982395
0.19002338591251
0.199091748884852
0.207787185328468
0.215859068929651
0.223042242582766
0.229084954701374
0.233760647875506
0.236860370342862
0.238169629464875
0.237440034920337
0.23436989010192
0.228607424663742
0.219785192733132
0.207585242109158
0.191824257010464
0.172539089620032
0.150049014086752
0.124973722105367
0.0981955847236879
0.0707686273996448
0.043790785742221
0.0182658840306299
-0.00501560907264461
-0.0255532549522075
-0.0431581524276691
-0.0579200244741949
-0.0701320298525479
-0.0801922557113212
-0.0885027144485888
-0.0953848679247621
-0.101026638192516
-0.10547004744179
-0.108640937306095
-0.110413042244536
-0.110689809327983
-0.109481589190954
-0.106955652331399
-0.103442675191233
-0.0993945354752423
-0.0953015974288117
-0.0915897031164182
-0.0885244295631067
-0.0861501363432678
-0.0842829462112405
-0.0825618844300729
-0.0805455277473688
-0.0778283405896035
-0.0741456878824761
-0.0694405990943773
-0.0638769440830852
-0.0577989142806769
-0.0516509517356917
-0.0458814769916178
-0.0408556691140642
-0.0367973377394597
-0.0337699923919392
-0.0316960596140205
-0.0304040201082348
-0.0296879257021645
-0.0293627607623159
-0.0293019870409063
-0.029449496247507
-0.0298057830831021
-0.0303954938670832
-0.0312284125747298
-0.0322669888248392
-0.0334107154620197
-0.0345022421520944
-0.0353537216862232
-0.0357861541001163
-0.0356708352187062
-0.0349613455774713
-0.0337069475339153
-0.0320431365443868
-0.0301612200658568
-0.0282645776991409
-0.0265229572757777
-0.0250365792558917
-0.0238188987584587
-0.0228016380551957
-0.0218596909052397
-0.0208483195686305
-0.0196421491962674
-0.0181656857615076
-0.0164083081690214
-0.0144217315887011
-0.012303064206385
-0.0101701441850692
-0.00813684441832812
-0.00629440145799811
-0.0047014390468832
-0.00338170165792176
-0.00232610503250614
-0.00149553690214225
-0.000822960101252253
-0.00021666326285299
0.000431138479021465
0.00122676807149469
0.00224902253734268
0.00352042480276153
0.00498539484281541
0.00650474647511958
0.00787159279384096
0.00884704318930179
0.00920767538172292
0.00879314204858601
0.00754263535775559
0.00551263847202124
0.0028734157880138
-0.000113988505247883
-0.00313573465115124
-0.00587219883731046
-0.00804727301553583
-0.00947281044453004
-0.0100812059080795
-0.00994010186170647
-0.00924533816805088
-0.00829148334215898
-0.00742317599635416
-0.0069743560275329
-0.00720552612652708
-0.00825078667200988
-0.010085937364015
-0.0125260771996075
-0.0152560609806991
-0.0178907419925802
-0.0200553573349376
-0.0214709186566807
-0.0220262515781376
-0.0218185896008803
-0.0211492642074593
-0.0204699255158834
-0.0202862649126461
-0.0210374901668219
-0.0229775307059886
-0.0260857079615891
-0.030029890191214
-0.0341953741247853
-0.0377800569991291
-0.0399427032410313
-0.0399780018379985
-0.0374823109936927
-0.0324711165132726
-0.0254162711770226
-0.0171881928576353
-0.00891150951979441
-0.00176505381655815
0.00322889340825013
0.00538019495873973
0.00443704801208508
0.000608326028993103
-0.00549128695368244
-0.0129510268301691
-0.0207004076478318
-0.0276484318570507
-0.032813093305966
-0.0354402713345046
-0.0351167459303233
-0.031877735810013
-0.0262955805581898
-0.0195182861564137
-0.0132133487750232
-0.00937281469117326
-0.00995632004509596
-0.0163904685013076
-0.0289984198288605
-0.0464887434625672
-0.0656684659485785
-0.0815429399303394
-0.0879120718275616
-0.0784681143032221
-0.0482603766124076
0.00475090725353337
0.0784320032872798
0.165903429987252
0.255963393906759
0.334607839688369
0.387470667818537
0.402726820680022
0.373801952802365
0.301191987276685
0.192854008537212
0.0629667563053634
-0.0707120910220229
-0.190276583337542
-0.281060247369905
-0.334180671777413
-0.347700176573526
-0.326252687190638
-0.279378306432755
-0.219087404736542
-0.157286063296642
-0.103633563871916
-0.0642147500378775
-0.0411636673291124
-0.0331400111320708
-0.0363909902685372
-0.0460563667338959
-0.0573930985127182
-0.0666843652078626
-0.0717194361738876
-0.071849277006713
-0.067711127115306
-0.0607610740863305
-0.0527579682505825
-0.0453150655889694
-0.0395917996389955
-0.036151092805334
-0.0349683753736035
-0.0355528243802238
-0.0371303305952767
-0.0388391418780462
-0.0398992204626899
-0.0397308557654721
-0.0380130709477085
-0.0346848715248017
-0.0299007984627983
-0.0239564122057215
-0.0172002588981423
-0.00994802253444104
-0.00241290693660304
0.00533629584507518
0.0133822586794963
0.021930293409401
0.0312498025025881
0.041598495005896
0.0531456924345134
0.0659114889726816
0.0797354211371685
0.0942820748257562
0.109082766429509
0.123603887009619
0.137325973398336
0.149815010217552
0.1607696636724
0.170034467228618
0.177577679046655
0.183441391887052
0.187678400973569
0.190293677420229
0.191207065022288
0.190248110296696
0.187185306682082
0.181783079450416
0.173872977412829
0.163422109498787
0.150582253258325
0.13570718365192
0.119332990170597
0.102124911000893
0.0848022229759905
0.0680577230043429
0.0524887992872325
0.0385527287570121
0.0265509798937722
0.0166387852315389
0.00885031749512406
0.00312846267915538
-0.000648805315550251
-0.00264830183307117
-0.00306631671537234
-0.00211534288670935
-1.17605026707956e-05
0.00303400830191052
0.00682237380185884
0.0111636174324002
0.0158733073921807
0.0207684848641726
