Timestamp,3/5/2024 10:03:33 AM
Interval,0.004
Channel name,"Input 0"
Unit,"V"
0,2.1606088139233179
0.004,2.0675993991317227
0.008,2.0149157445994206
0.012,2.074753969500307
0.016,2.3316680872812867
0.02,2.7863085134304129
0.024,3.4042032270808704
0.028,4.0526674686698243
0.032,4.6016181405866519
0.036,4.6913754779379815
0.04,4.6930015166581143
0.044,4.6556026260950603
0.048,4.1271400420519058
0.052,3.3352591853472404
0.056,2.6305340040416922
0.06,2.1502021661144681
0.064,1.988899125077296
0.068,1.9836958011728711
0.072,2.0240215614321642
0.076,2.0685750223638024
0.08,2.1017462122545112
0.084,2.1212586768961046
0.088,2.1336165711691137
0.092,2.1358930253772996
0.096,2.1420719725138042
0.1,2.1593079829472117
0.104,2.1820725250290707
0.108,2.192804380581947
0.112,2.2006093664385844
0.116,2.2093899755273014
0.12,2.2152437149197794
0.124,2.2168697536399122
0.128,2.2145932994317263
0.132,2.2279268169368152
0.136,2.2425611654180102
0.14,2.255894682923099
0.144,2.258821552619338
0.148,2.2663013307319488
0.152,2.2796348482370377
0.156,2.2926431579980999
0.16,2.2994725206226576
0.164,2.3108547916635871
0.168,2.3323185027693398
0.172,2.350530136434827
0.176,2.3645140694279689
0.18,2.3749207172368187
0.184,2.3898802734620403
0.188,2.4129700232879259
0.192,2.4211002168885898
0.196,2.4298808259773068
0.2,2.4500437061069533
0.204,2.4757351178850513
0.208,2.4939467515505385
0.212,2.5154104626562912
0.216,2.5437035363866016
0.22,2.5736226488370448
0.224,2.5937855289666913
0.228,2.6178509020246565
0.232,2.6487456377071794
0.236,2.680615996621782
0.24,2.7030553309596144
0.244,2.7079334471200127
0.248,2.7092342780961189
0.252,2.7176896794408094
0.256,2.7245190420653671
0.26,2.7225677956012078
0.264,2.7072830316319596
0.268,2.6809412043658085
0.272,2.6493960531952325
0.276,2.5970376064069569
0.28,2.5381750047381502
0.284,2.4926459205744322
0.288,2.453946199035272
0.292,2.4110187768237665
0.296,2.3723190552846063
0.3,2.344676397042349
0.304,2.32191185496049
0.308,2.3004481438547373
0.312,2.2796348482370377
0.316,2.2747567320766393
0.32,2.2789844327489845
0.324,2.2809356792131439
0.328,2.2754071475646924
0.332,2.2789844327489845
0.336,2.2861390031175688
0.34,2.2858137953735422
0.344,2.2806104714691173
0.348,2.2822365101892501
0.352,2.2910171192779671
0.356,2.2965456509264186
0.36,2.2916675347660203
0.364,2.2939439889742061
0.368,2.3033750135509763
0.372,2.3059766755031887
0.376,2.3017489748308435
0.38,2.293293573486153
0.384,2.3037002212950028
0.388,2.3154077000799589
0.392,2.3163833233120386
0.396,2.3170337388000917
0.4,2.324838724656729
0.404,2.3332941260014195
0.408,2.330692464049207
0.412,2.3261395556328353
0.416,2.3310176717932336
0.42,2.3391478653938975
0.424,2.3430503583222162
0.428,2.3397982808819506
0.432,2.3401234886259772
0.436,2.3440259815542959
0.44,2.3466276435065083
0.444,2.344676397042349
0.448,2.3482536822266411
0.452,2.3612619919877034
0.456,2.373294678516686
0.46,2.3742703017487656
0.464,2.3797988333972171
0.468,2.3898802734620403
0.472,2.404839829687262
0.476,2.4035389987111557
0.48,2.4067910761514213
0.484,2.4116691923118196
0.488,2.4139456465200055
0.492,2.4080919071275275
0.496,2.4041894141992088
0.5,2.4032137909671292
0.504,2.4038642064551823
0.508,2.3993112980388105
0.512,2.3947583896224387
0.516,2.3983356748067308
0.52,2.4064658684073947
0.524,2.4093927381036337
0.528,2.407766699383501
0.532,2.4126448155438993
0.536,2.4152464774961118
0.54,2.4097179458476603
0.544,2.4012625445029698
0.548,2.4009373367589433
0.552,2.4116691923118196
0.556,2.4162221007281914
0.56,2.4132952310319524
0.564,2.4132952310319524
0.568,2.4181733471923508
0.572,2.4269539562810678
0.576,2.4295556182332803
0.58,2.4321572801854927
0.584,2.4383362273219973
0.588,2.4428891357383691
0.592,2.4419135125062894
0.596,2.4389866428100504
0.6,2.4409378892742097
0.604,2.4471168364107143
0.608,2.4487428751308471
0.612,2.4555722377554048
0.616,2.4663040933082812
0.62,2.4757351178850513
0.624,2.4728082481888123
0.628,2.4646780545881484
0.632,2.4630520158680156
0.636,2.4695561707485467
0.64,2.476710741117131
0.644,2.4708570017246529
0.648,2.4695561707485467
0.652,2.476710741117131
0.656,2.485491350205848
0.66,2.4858165579498746
0.664,2.4861417656939011
0.668,2.4903694663662463
0.672,2.4955727902706712
0.676,2.4893938431341667
0.68,2.485491350205848
0.684,2.4874425966700073
0.688,2.4945971670385916
0.692,2.4932963360624854
0.696,2.4877678044140339
0.7,2.4952475825266447
0.704,2.5098819310078397
0.708,2.5144348394242115
0.712,2.5115079697279725
0.716,2.5102071387518663
0.72,2.5150852549122646
0.724,2.5154104626562912
0.728,2.511182761983946
0.732,2.5157356704003178
0.736,2.5193129555846099
0.74,2.5154104626562912
0.744,2.5043533993593883
0.748,2.4955727902706712
0.752,2.5027273606392555
0.756,2.5180121246085037
0.76,2.5209389943047427
0.764,2.5225650330248754
0.768,2.5251666949770879
0.772,2.5280935646733269
0.776,2.5254919027211145
0.78,2.5193129555846099
0.784,2.517036501376424
0.788,2.519963371072663
0.792,2.5085811000317335
0.796,2.4958979980146978
0.8,2.4939467515505385
0.804,2.5004509064310696
0.808,2.5089063077757601
0.812,2.5189877478405833
0.816,2.5375245892500971
0.82,2.5628907932841685
0.824,2.5817528424377088
0.828,2.5804520114616025
0.832,2.5833788811578415
0.836,2.5915090747585054
0.84,2.5996392683591694
0.844,2.5954115676868241
0.848,2.5872813740861602
0.852,2.5833788811578415
0.856,2.5781755572534166
0.86,2.5583378848677967
0.864,2.5433783286425751
0.868,2.5411018744343892
0.872,2.5385002124821767
0.876,2.5332968885777518
0.88,2.5326464730896987
0.884,2.5362237582739908
0.888,2.5443539518746547
0.892,2.5430531208985485
0.896,2.542727913154522
0.9,2.5469556138268672
0.904,2.5492320680350531
0.908,2.5459799905947875
0.912,2.5407766666903626
0.916,2.5450043673627079
0.92,2.5528093532193452
0.924,2.5518337299872655
0.928,2.5167112936323974
0.932,2.4227262556087226
0.936,2.3150824923359323
0.94,2.2432115809060633
0.944,2.2653257074998692
0.948,2.4750847023969982
0.952,2.8978547696315218
0.956,3.5037167967529967
0.96,4.1785228656081017
0.964,4.6767411294567864
0.968,4.6995056715386454
0.972,4.7047089954430703
0.976,4.7008065025147516
0.98,4.6477976402384229
0.984,4.0321793807961512
0.988,3.235095200187061
0.992,2.577199934021337
0.996,2.287439834093675
1,2.2308536866330542
1.004,2.2454880351142492
1.008,2.2776836017728783
1.012,2.3063018832472153
1.016,2.335895787953632
1.02,2.3492293054587208
1.024,2.3537822138750926
1.028,2.3544326293631457
1.032,2.3628880307078362
1.036,2.3726442630286328
1.04,2.3680913546122611
1.044,2.3638636539399158
1.048,2.3628880307078362
1.052,2.3677661468682345
1.056,2.3752459249808453
1.06,2.3778475869330578
1.064,2.3771971714450046
1.068,2.3827257030934561
1.072,2.3902054812060669
1.076,2.3895550657180138
1.08,2.3931323509023059
1.084,2.407766699383501
1.088,2.4211002168885898
1.092,2.4276043717691209
1.096,2.4240270865848288
1.1,2.4321572801854927
1.104,2.4458160054346081
1.108,2.4571982764755376
1.112,2.4584991074516438
1.116,2.4705317939806264
1.12,2.4841905192297418
1.124,2.497198828990804
1.128,2.5072802690556273
1.132,2.5180121246085037
1.136,2.5297196033934597
1.14,2.542727913154522
1.144,2.551508522243239
1.148,2.5765495185332838
1.152,2.6067938387277536
1.156,2.6376885744102765
1.16,2.6552497925877105
1.164,2.6770387114374898
1.168,2.7082586548640393
1.172,2.7313484046899248
1.176,2.7420802602428012
1.18,2.7531373235397041
1.184,2.7706985417171381
1.188,2.7908614218467847
1.192,2.7999672386795282
1.196,2.7931378760549705
1.2,2.7853328901983332
1.204,2.7580154397001024
1.208,2.7183400949288625
1.212,2.6754126727173571
1.216,2.6237046414171346
1.22,2.569069740420673
1.224,2.5222398252808489
1.228,2.4721578327007592
1.232,2.4318320724414662
1.236,2.399636505782837
1.24,2.373294678516686
1.244,2.344676397042349
1.248,2.324838724656729
1.252,2.3098791684315074
1.256,2.3010985593427904
1.26,2.2971960664144717
1.264,2.2991473128786311
1.268,2.3092287529434543
1.272,2.3124808303837199
1.276,2.2978464819025248
1.28,2.284512964397436
1.284,2.2916675347660203
1.288,2.3098791684315074
1.292,2.3196354007523041
1.296,2.3180093620321713
1.3,2.3202858162403572
1.304,2.3232126859365962
1.308,2.3167085310560651
1.312,2.3053262600151356
1.316,2.3082531297113746
1.32,2.3173589465441182
1.324,2.3186597775202245
1.328,2.3228874781925697
1.332,2.3209362317284103
1.336,2.3228874781925697
1.34,2.3287412175850477
1.344,2.3323185027693398
1.348,2.3365462034416851
1.352,2.3339445414894726
1.356,2.3345949569775257
1.36,2.3258143478888087
1.364,2.3271151788649149
1.368,2.3355705802096054
1.372,2.3339445414894726
1.376,2.3303672563051805
1.38,2.3310176717932336
1.384,2.3423999428341631
1.388,2.3495545132027473
1.392,2.347603266738588
1.396,2.3472780589945614
1.4,2.3521561751549598
1.404,2.3612619919877034
1.408,2.3550830448511988
1.412,2.344676397042349
1.416,2.3440259815542959
1.42,2.3547578371071722
1.424,2.3557334603392519
1.428,2.3606115764996503
1.432,2.3619124074757565
1.436,2.3697173933323938
1.44,2.3814248721173499
1.444,2.3784980024211109
1.448,2.3641888616839424
1.452,2.3680913546122611
1.456,2.3807744566292968
1.46,2.3752459249808453
1.464,2.3635384461958893
1.468,2.365164484916022
1.472,2.3697173933323938
1.476,2.3677661468682345
1.48,2.3609367842436768
1.484,2.3697173933323938
1.488,2.3713434320525266
1.492,2.3749207172368187
1.496,2.3801240411412437
1.5,2.3827257030934561
1.504,2.3846769495576154
1.508,2.385002157301642
1.512,2.3837013263255358
1.516,2.3872786115098279
1.52,2.3941079741343856
1.524,2.387929026997881
1.528,2.3902054812060669
1.532,2.3980104670627043
1.536,2.4061406606633682
1.54,2.4054902451753151
1.544,2.4015877522469964
1.548,2.3999617135268636
1.552,2.4071162838954479
1.556,2.4149212697520852
1.56,2.4087423226155806
1.564,2.3973600515746512
1.568,2.4006121290149167
1.572,2.416547308472218
1.576,2.4175229317042977
1.58,2.4132952310319524
1.584,2.4158968929841649
1.588,2.4243522943288554
1.592,2.4181733471923508
1.596,2.4178481394483242
1.6,2.4308564492093865
1.604,2.4471168364107143
1.608,2.448092459642794
1.612,2.4428891357383691
1.616,2.4402874737861566
1.62,2.4363849808578379
1.624,2.4389866428100504
1.628,2.4428891357383691
1.632,2.4438647589704487
1.636,2.4474420441547409
1.64,2.4477672518987674
1.644,2.4503689138509799
1.648,2.4454907976905815
1.652,2.4389866428100504
1.656,2.4315068646974396
1.66,2.4289052027452271
1.664,2.4298808259773068
1.668,2.4376858118339442
1.672,2.4412630970182363
1.676,2.4370353963458911
1.68,2.4581738997076172
1.684,2.485491350205848
1.688,2.5115079697279725
1.692,2.5222398252808489
1.696,2.5189877478405833
1.7,2.5336220963217784
1.704,2.554435391939478
1.708,2.5554110151715577
1.712,2.5290691879054066
1.716,2.511182761983946
1.72,2.5215894097927958
1.724,2.5196381633286364
1.728,2.5046786071034148
1.732,2.4910198818542995
1.736,2.4890686353901401
1.74,2.4897190508781932
1.744,2.4845157269737683
1.748,2.4750847023969982
1.752,2.482564480509609
1.756,2.4871173889259808
1.76,2.482564480509609
1.764,2.4851661424618214
1.768,2.4880930121580604
1.772,2.488418219902087
1.776,2.4783367798372637
1.78,2.4754099101410247
1.784,2.4897190508781932
1.788,2.4949223747826181
1.792,2.4916702973423526
1.796,2.4653284700762015
1.8,2.4009373367589433
1.804,2.2965456509264186
1.808,2.2041866516228765
1.812,2.1820725250290707
1.816,2.3098791684315074
1.82,2.649070845451206
1.824,3.1794846759585198
1.828,3.8386807731003501
1.832,4.4647056803514715
1.836,4.6903998547059018
1.84,4.6995056715386454
1.844,4.6972292173304595
1.848,4.6630824042076711
1.852,4.1043754999700468
1.856,3.2975350870401599
1.86,2.5954115676868241
1.864,2.2051622748549562
1.868,2.1313401169609278
1.872,2.1651617223396897
1.876,2.2077639368071686
1.88,2.2467888660903554
1.884,2.2988221051346045
1.888,2.3375218266737647
1.892,2.3450016047863755
1.896,2.3313428795372602
1.9,2.3274403866089415
1.904,2.3472780589945614
1.908,2.3524813828989863
1.912,2.3397982808819506
1.916,2.3316680872812867
1.92,2.3329689182573929
1.924,2.3414243196020834
1.928,2.3518309674109332
1.932,2.3713434320525266
1.936,2.3797988333972171
1.94,2.3775223791890312
1.944,2.3661401081481017
1.948,2.3583351222914644
1.952,2.3797988333972171
1.956,2.3957340128545184
1.96,2.3840265340695623
1.964,2.387929026997881
1.968,2.4035389987111557
1.972,2.4188237626804039
1.976,2.428254787257174
1.98,2.442238720250316
1.984,2.4663040933082812
1.988,2.4819140650215559
1.992,2.4903694663662463
1.996,2.5040281916153617
2,2.5196381633286364
2.004,2.525817110465141
2.008,2.5576874693797436
2.012,2.6132979936082847
2.016,2.6477700144750997
2.02,2.6812664121098351
2.024,2.6968763838231098
2.028,2.7050065774237737
2.032,2.7388281828025356
2.036,2.7879345521505456
2.04,2.8324880130821839
2.044,2.8480979847954586
2.048,2.8549273474200163
2.052,2.8757406430377159
2.056,2.8773666817578487
2.06,2.8493988157715648
2.064,2.8367157137545291
2.068,2.8295611433859449
2.072,2.8058209780720063
2.076,2.7492348306113854
2.08,2.6880957747343928
2.084,2.6155744478164706
2.088,2.5534597687073983
2.092,2.4962232057587244
2.096,2.4523201603151392
2.1,2.399636505782837
2.104,2.3508553441788536
2.108,2.3206110239843838
2.112,2.301423767086817
2.116,2.2955700276943389
2.12,2.2760575630527455
2.124,2.2487401125545148
2.128,2.2399595034657978
2.132,2.232479725353187
2.136,2.235406595049426
2.14,2.2285772324248683
2.144,2.224349531752523
2.148,2.2422359576739836
2.152,2.2477644893224351
2.156,2.2484149048104882
2.16,2.2279268169368152
2.164,2.2139428839436732
2.168,2.2308536866330542
2.172,2.258821552619338
2.176,2.2542686442029662
2.18,2.2445124118821695
2.184,2.2484149048104882
2.188,2.2467888660903554
2.192,2.2406099189538509
2.196,2.2276016091927886
2.2,2.2295528556569479
2.204,2.2555694751790725
2.208,2.2610980068275239
2.212,2.258821552619338
2.216,2.2568703061551787
2.22,2.2646752920118161
2.224,2.2702038236602675
2.228,2.2607727990834974
2.232,2.2640248765237629
2.236,2.2734559011005331
2.24,2.2676021617080551
2.244,2.2884154573257547
2.248,2.2825617179332767
2.252,2.293293573486153
2.256,2.3089035451994278
2.26,2.3300420485611539
2.264,2.327765594352968
2.268,2.3183345697761979
2.272,2.3154077000799589
2.276,2.3128060381277464
2.28,2.3228874781925697
2.284,2.318984985264251
2.288,2.3332941260014195
2.292,2.3245135169127025
2.296,2.3167085310560651
2.3,2.316058115568012
2.304,2.3150824923359323
2.308,2.310204376175534
2.312,2.3069522987352684
2.316,2.3202858162403572
2.32,2.3319932950253133
2.324,2.3375218266737647
2.328,2.3271151788649149
2.332,2.3245135169127025
2.336,2.3336193337454461
2.34,2.3420747350901365
2.344,2.3355705802096054
2.348,2.3414243196020834
2.352,2.3453268125304021
2.356,2.3323185027693398
2.36,2.3238631014246494
2.364,2.3319932950253133
2.368,2.3362209956976585
2.372,2.3349201647215523
2.376,2.324838724656729
2.38,2.3271151788649149
2.384,2.3479284744826145
2.388,2.3606115764996503
2.392,2.3407739041140303
2.396,2.3375218266737647
2.4,2.3329689182573929
2.404,2.34174952734611
2.408,2.3544326293631457
2.412,2.3528065906430129
2.416,2.3612619919877034
2.42,2.3648392771719955
2.424,2.3589855377795175
2.428,2.3524813828989863
2.432,2.3524813828989863
2.436,2.3619124074757565
2.44,2.3690669778443407
2.444,2.373294678516686
2.448,2.3729694707726594
2.452,2.3771971714450046
2.456,2.3687417701003142
2.46,2.3810996643733233
2.464,2.3801240411412437
2.468,2.3690669778443407
2.472,2.3863029882777482
2.476,2.387929026997881
2.48,2.3902054812060669
2.484,2.4028885832231026
2.488,2.4126448155438993
2.492,2.3911811044381466
2.496,2.3986608825507574
2.5,2.3980104670627043
2.504,2.3817500798613764
2.508,2.387929026997881
2.512,2.385002157301642
2.516,2.3810996643733233
2.52,2.3889046502299607
2.524,2.3788232101651374
2.528,2.3827257030934561
2.532,2.404839829687262
2.536,2.4263035407930147
2.54,2.4402874737861566
2.544,2.4441899667144753
2.548,2.4581738997076172
2.552,2.4676049242843874
2.556,2.473783871420892
2.56,2.47963761081337
2.564,2.4721578327007592
2.568,2.4689057552604936
2.572,2.4858165579498746
2.576,2.4945971670385916
2.58,2.4741090791649185
2.584,2.4542714067792986
2.588,2.4461412131786346
2.592,2.4380110195779707
2.596,2.4360597731138114
2.6,2.4230514633527491
2.604,2.4354093576257583
2.608,2.4438647589704487
2.612,2.4324824879295193
2.616,2.4386614350660238
2.62,2.445165589946555
2.624,2.4357345653697848
2.628,2.4432143434823956
2.632,2.4318320724414662
2.636,2.4396370582981035
2.64,2.4513445370830595
2.644,2.4516697448270861
2.648,2.4552470300113782
2.652,2.4406126815301832
2.656,2.382075287605403
2.66,2.2776836017728783
2.664,2.1456492576980963
2.668,2.1043478742067236
2.672,2.2542686442029662
2.676,2.5989888528711163
2.68,3.1183456200815272
2.684,3.7603057067899499
2.688,4.3921843534335494
2.692,4.6868225695216097
2.696,4.6975544250744861
2.7,4.6972292173304595
2.704,4.6604807422554586
2.708,4.0777084649598692
2.712,3.2464774712279905
2.716,2.5385002124821767
2.72,2.1410963492817245
2.724,2.0744287617562804
2.728,2.1183318071998656
2.732,2.1563811132509727
2.736,2.206788313575089
2.74,2.2477644893224351
2.744,2.2890658728138078
2.748,2.3180093620321713
2.752,2.3225622704485431
2.756,2.3228874781925697
2.76,2.3235378936806228
2.764,2.3313428795372602
2.768,2.3284160098410212
2.772,2.3238631014246494
2.776,2.3163833233120386
2.78,2.3154077000799589
2.784,2.3323185027693398
2.788,2.3381722421618178
2.792,2.3401234886259772
2.796,2.3381722421618178
2.8,2.3397982808819506
2.804,2.3368714111857116
2.808,2.3300420485611539
2.812,2.3329689182573929
2.816,2.3466276435065083
2.82,2.3596359532675706
2.824,2.3784980024211109
2.828,2.3976852593186777
2.832,2.4168725162162445
2.836,2.4357345653697848
2.84,2.4409378892742097
2.844,2.4428891357383691
2.848,2.4793124030693434
2.852,2.5024021528952289
2.856,2.5180121246085037
2.86,2.5300448111374862
2.864,2.5365489660180174
2.868,2.5729722333489917
2.872,2.6058182154956739
2.876,2.635086912458064
2.88,2.6731362185091712
2.884,2.7167140562087297
2.888,2.7476087918912526
2.892,2.7648448023246601
2.896,2.786958928918466
2.9,2.8159024181368295
2.904,2.8399677911947947
2.908,2.8428946608910337
2.912,2.8295611433859449
2.916,2.8282603124098387
2.92,2.8298863511299714
2.924,2.8233821962494403
2.928,2.7967151612392627
2.932,2.7557389854919165
2.936,2.6959007605910301
2.94,2.6386641976423562
2.944,2.5658176629804075
2.948,2.4923207128304057
2.952,2.4373606040899176
2.956,2.3918315199261997
2.96,2.3495545132027473
2.964,2.3150824923359323
2.968,2.2835373411653563
2.972,2.2659761229879223
2.976,2.2614232145715505
2.98,2.2536182287149131
2.984,2.2480896970664617
2.988,2.2435367886500899
2.992,2.238333464745665
2.996,2.2373578415135853
3,2.2438619963941164
3.004,2.2445124118821695
3.008,2.2344309718173463
3.012,2.2269511937047355
3.016,2.2393090879777446
3.02,2.2490653202985413
3.024,2.2513417745067272
3.028,2.2578459293872584
3.032,2.2565450984111521
3.036,2.2484149048104882
3.04,2.2464636583463289
3.044,2.2402847112098243
3.048,2.2402847112098243
3.052,2.2536182287149131
3.056,2.2516669822507538
3.06,2.2467888660903554
3.064,2.25296781322686
3.068,2.2555694751790725
3.072,2.2672769539640285
3.076,2.2666265384759754
3.08,2.2623988378036302
3.084,2.2767079785407986
3.088,2.275732355308719
3.092,2.2604475913394708
3.096,2.2607727990834974
3.1,2.2747567320766393
3.104,2.2906919115339406
3.108,2.2919927425100468
3.112,2.2851633798854891
3.116,2.2825617179332767
3.12,2.2991473128786311
3.124,2.3180093620321713
3.128,2.316058115568012
3.132,2.3027245980629232
3.136,2.3010985593427904
3.14,2.3157329078239854
3.144,2.318984985264251
3.148,2.3235378936806228
3.152,2.3332941260014195
3.156,2.3407739041140303
3.16,2.3329689182573929
3.164,2.3401234886259772
3.168,2.3547578371071722
3.172,2.3498797209467739
3.176,2.3450016047863755
3.18,2.344676397042349
3.184,2.3397982808819506
3.188,2.3365462034416851
3.192,2.3345949569775257
3.196,2.330692464049207
3.2,2.3362209956976585
3.204,2.3482536822266411
3.208,2.3521561751549598
3.212,2.3394730731379241
3.216,2.3482536822266411
3.22,2.3570342913153581
3.224,2.3573594990593847
3.228,2.3443511892983224
3.232,2.347603266738588
3.236,2.3583351222914644
3.24,2.3544326293631457
3.244,2.3440259815542959
3.248,2.3508553441788536
3.252,2.3567090835713316
3.256,2.3573594990593847
3.26,2.3495545132027473
3.264,2.3456520202744287
3.268,2.3567090835713316
3.272,2.3693921855883673
3.276,2.3589855377795175
3.28,2.3567090835713316
3.284,2.3661401081481017
3.288,2.3713434320525266
3.292,2.3723190552846063
3.296,2.3781727946770843
3.3,2.3902054812060669
3.304,2.3905306889500935
3.308,2.3918315199261997
3.312,2.3837013263255358
3.316,2.3830509108374827
3.32,2.3999617135268636
3.324,2.4058154529193416
3.328,2.3954088051104918
3.332,2.3837013263255358
3.336,2.3895550657180138
3.34,2.3980104670627043
3.344,2.3911811044381466
3.348,2.3781727946770843
3.352,2.3895550657180138
3.356,2.3986608825507574
3.36,2.4041894141992088
3.364,2.41069356907974
3.368,2.4132952310319524
3.372,2.4054902451753151
3.376,2.3892298579739872
3.38,2.3794736256531905
3.384,2.3749207172368187
3.388,2.3706930165644735
3.392,2.376221548212925
3.396,2.3889046502299607
3.4,2.4155716852401383
3.404,2.4415883047622629
3.408,2.453946199035272
3.412,2.4614259771478828
3.416,2.456873068731511
3.42,2.4650032623321749
3.424,2.4812636495335028
3.428,2.4871173889259808
3.432,2.4903694663662463
3.436,2.4900442586222198
3.44,2.4705317939806264
3.444,2.4432143434823956
3.448,2.4441899667144753
3.452,2.4552470300113782
3.456,2.4555722377554048
3.46,2.4406126815301832
3.464,2.4360597731138114
3.468,2.4441899667144753
3.472,2.4464664209226612
3.476,2.4350841498817317
3.48,2.4276043717691209
3.484,2.4360597731138114
3.488,2.4383362273219973
3.492,2.4389866428100504
3.496,2.4409378892742097
3.5,2.4464664209226612
3.504,2.4467916286666878
3.508,2.4461412131786346
3.512,2.442238720250316
3.516,2.4243522943288554
3.52,2.3453268125304021
3.524,2.2227234930323903
3.528,2.1316653247049544
3.532,2.1313401169609278
3.536,2.3381722421618178
3.54,2.7560641932359431
3.544,3.3586741429171525
3.548,4.0555943383660633
3.552,4.6569034570711665
3.556,4.6988552560505923
3.56,4.7043837876990438
3.564,4.7017821257468313
3.568,4.6656840661598835
3.572,4.1043754999700468
3.576,3.2806242843507789
3.58,2.5567118461476639
3.584,2.2090647677832749
3.588,2.1358930253772996
3.592,2.1479257119062822
3.596,2.172316292708274
3.6,2.2165445458958857
3.604,2.2506913590186741
3.608,2.2656509152438957
3.612,2.2731306933565065
3.616,2.2828869256773032
3.62,2.2877650418377016
3.624,2.2945944044622593
3.628,2.3030498058069497
3.632,2.3030498058069497
3.636,2.3030498058069497
3.64,2.2968708586704452
3.644,2.2893910805578344
3.648,2.2971960664144717
3.652,2.3111799994076136
3.656,2.3134564536157995
3.66,2.3098791684315074
3.664,2.3098791684315074
3.668,2.3082531297113746
3.672,2.3147572845919058
3.676,2.3170337388000917
3.68,2.3193101930082776
3.684,2.3326437105133664
3.688,2.3609367842436768
3.692,2.370367808820447
3.696,2.3723190552846063
3.7,2.3918315199261997
3.704,2.4171977239602711
3.708,2.4331329034175724
3.712,2.434108526649652
3.716,2.4415883047622629
3.72,2.4650032623321749
3.724,2.4861417656939011
3.728,2.4916702973423526
3.732,2.511182761983946
3.736,2.534597719553858
3.74,2.5589883003558498
3.744,2.5853301276220009
3.748,2.6158996555604972
3.752,2.649070845451206
3.756,2.6783395424135961
3.76,2.7024049154715613
3.764,2.7290719504817389
3.768,2.7570398164680228
3.772,2.7713489572051913
3.776,2.7772026965976693
3.78,2.7824060205020942
3.784,2.7824060205020942
3.788,2.775901865621563
3.792,2.7515112848195713
3.796,2.7085838626080658
3.8,2.6598027010040823
3.804,2.6051678000076208
3.808,2.542727913154522
3.812,2.4835401037416887
3.816,2.4363849808578379
3.82,2.4015877522469964
3.824,2.3677661468682345
3.828,2.3319932950253133
3.832,2.3089035451994278
3.836,2.2952448199503124
3.84,2.2809356792131439
3.844,2.2653257074998692
3.848,2.2604475913394708
3.852,2.2545938519469928
3.856,2.2474392815784086
3.86,2.2389838802337181
3.864,2.2393090879777446
3.868,2.2484149048104882
3.872,2.2552442674350459
3.876,2.2545938519469928
3.88,2.2568703061551787
3.884,2.2708542391483206
3.888,2.2780088095169049
3.892,2.2744315243326128
3.896,2.269878615916241
3.9,2.2754071475646924
3.904,2.2793096404930111
3.908,2.2750819398206659
3.912,2.269878615916241
3.916,2.2656509152438957
3.92,2.2689029926841613
3.924,2.27280548561248
3.928,2.2708542391483206
3.932,2.2734559011005331
3.936,2.2799600559810642
3.94,2.2900414960458875
3.944,2.290366703789914
3.948,2.2952448199503124
3.952,2.3056514677591622
3.956,2.3079279219673481
3.96,2.304350636783056
3.964,2.301423767086817
3.968,2.3095539606874809
3.972,2.3170337388000917
3.976,2.3264647633768618
3.98,2.3326437105133664
3.984,2.3414243196020834
3.988,2.3466276435065083
3.992,2.3430503583222162
3.996,2.3332941260014195
4,2.3407739041140303
4.004,2.3492293054587208
4.008,2.344676397042349
4.012,2.3339445414894726
4.016,2.3384974499058444
4.02,2.3450016047863755
4.024,2.3407739041140303
4.028,2.3365462034416851
4.032,2.3420747350901365
4.036,2.3570342913153581
4.04,2.3648392771719955
4.044,2.3589855377795175
4.048,2.3547578371071722
4.052,2.3661401081481017
4.056,2.3745955094927922
4.06,2.3706930165644735
4.064,2.3680913546122611
4.068,2.373294678516686
4.072,2.3801240411412437
4.076,2.3755711327248719
4.08,2.3749207172368187
4.084,2.3804492488852702
4.088,2.3843517418135889
4.092,2.3801240411412437
4.096,2.3765467559569515
4.1,2.3804492488852702
4.104,2.3905306889500935
4.108,2.3905306889500935
4.112,2.3863029882777482
4.116,2.387929026997881
4.12,2.3934575586463325
4.124,2.39085589669412
4.128,2.3830509108374827
4.132,2.3843517418135889
4.136,2.3902054812060669
4.14,2.396709636086598
4.144,2.3973600515746512
4.148,2.4038642064551823
4.152,2.4175229317042977
4.156,2.4227262556087226
4.16,2.4168725162162445
4.164,2.4113439845677931
4.168,2.4152464774961118
4.172,2.422401047864696
4.176,2.4227262556087226
4.18,2.4191489704244304
4.184,2.4230514633527491
4.188,2.4292304104892537
4.192,2.4263035407930147
4.196,2.4233766710967757
4.2,2.4266287485370412
4.204,2.4350841498817317
4.208,2.4331329034175724
4.212,2.4233766710967757
4.216,2.4175229317042977
4.22,2.4184985549363773
4.224,2.4152464774961118
4.228,2.3980104670627043
4.232,2.3944331818784121
4.236,2.3989860902947839
4.24,2.3980104670627043
4.244,2.3999617135268636
4.248,2.41069356907974
4.252,2.4324824879295193
4.256,2.4549218222673517
4.26,2.4682553397724405
4.264,2.4799628185573965
4.268,2.4877678044140339
4.272,2.5024021528952289
4.276,2.5066298535675742
4.28,2.5027273606392555
4.284,2.5046786071034148
4.288,2.5037029838713352
4.292,2.4923207128304057
4.296,2.4806132340454496
4.3,2.4692309630045202
4.304,2.4659788855642546
4.308,2.4555722377554048
4.312,2.4445151744585019
4.316,2.4367101886018645
4.32,2.4376858118339442
4.324,2.4402874737861566
4.328,2.4386614350660238
4.332,2.4435395512264222
4.336,2.4506941215950064
4.34,2.4529705758031923
4.344,2.4464664209226612
4.348,2.4454907976905815
4.352,2.4519949525711127
4.356,2.4536209912912454
4.36,2.4513445370830595
4.364,2.4337833189056255
4.368,2.3697173933323938
4.372,2.2614232145715505
4.376,2.1515029970905744
4.38,2.123860338848317
4.384,2.2770331862848252
4.388,2.6399650286184624
4.392,3.2038752567605115
4.396,3.9050231528817676
4.4,4.5827560914331116
4.404,4.6988552560505923
4.408,4.7043837876990438
4.412,4.7053594109311234
4.416,4.6920258934260346
4.42,4.3999893392901868
4.424,3.5837179017835297
4.428,2.7772026965976693
4.432,2.3017489748308435
4.436,2.1641860991076101
4.44,2.1518282048346009
4.444,2.1729667081963271
4.448,2.212642052967567
4.452,2.2464636583463289
4.456,2.2607727990834974
4.46,2.2620736300596036
4.464,2.266951746220002
4.468,2.2832121334213298
4.472,2.2991473128786311
4.476,2.3020741825748701
4.48,2.3046758445270825
4.484,2.3108547916635871
4.488,2.3154077000799589
4.492,2.3108547916635871
4.496,2.3050010522711091
4.5,2.3050010522711091
4.504,2.3092287529434543
4.508,2.3095539606874809
4.512,2.3066270909912419
4.516,2.3076027142233215
4.52,2.3176841542881448
4.524,2.3232126859365962
4.528,2.3245135169127025
4.532,2.3326437105133664
4.536,2.3469528512505349
4.54,2.3602863687556237
4.544,2.3687417701003142
4.548,2.3807744566292968
4.552,2.4002869212708902
4.556,2.4184985549363773
4.56,2.4263035407930147
4.564,2.4376858118339442
4.568,2.4555722377554048
4.572,2.4773611566051841
4.576,2.4932963360624854
4.58,2.5124835929600522
4.584,2.5375245892500971
4.588,2.5641916242602747
4.592,2.585980543110054
4.596,2.6123223703762051
4.6,2.6438675215467811
4.604,2.6757378804613836
4.608,2.701104084495455
4.612,2.7176896794408094
4.616,2.7378525595704559
4.62,2.7625683481164742
4.624,2.7814303972700145
4.628,2.7876093444065191
4.632,2.7882597598945722
4.636,2.784032059222227
4.64,2.7648448023246601
4.644,2.7274459117616061
4.648,2.6770387114374898
4.652,2.6269567188574001
4.656,2.5713461946288589
4.66,2.5095567232638132
4.664,2.4516697448270861
4.668,2.4058154529193416
4.672,2.365164484916022
4.676,2.3258143478888087
4.68,2.2981716896465514
4.684,2.2809356792131439
4.688,2.2702038236602675
4.692,2.2568703061551787
4.696,2.2438619963941164
4.7,2.2402847112098243
4.704,2.2415855421859305
4.708,2.2406099189538509
4.712,2.2373578415135853
4.716,2.2419107499299571
4.72,2.2467888660903554
4.724,2.2503661512746476
4.728,2.2519921899947803
4.732,2.2545938519469928
4.736,2.2568703061551787
4.74,2.2594719681073911
4.744,2.255894682923099
4.748,2.2581711371312849
4.752,2.2643500842677895
4.756,2.2692282004281878
4.76,2.2636996687797364
4.764,2.2584963448753115
4.768,2.2630492532916833
4.772,2.2663013307319488
4.776,2.2643500842677895
4.78,2.2623988378036302
4.784,2.2666265384759754
4.788,2.2760575630527455
4.792,2.281586094701197
4.796,2.2861390031175688
4.8,2.2984968973905779
4.804,2.3079279219673481
4.808,2.3092287529434543
4.812,2.3027245980629232
4.816,2.3033750135509763
4.82,2.3137816613598261
4.824,2.3206110239843838
4.828,2.3225622704485431
4.832,2.3280908020969946
4.836,2.3345949569775257
4.84,2.3368714111857116
4.844,2.3362209956976585
4.848,2.3394730731379241
4.852,2.3407739041140303
4.856,2.3404486963700037
4.86,2.3336193337454461
4.864,2.3303672563051805
4.868,2.3368714111857116
4.872,2.3414243196020834
4.876,2.3378470344177913
4.88,2.3355705802096054
4.884,2.3407739041140303
4.888,2.3485788899706677
4.892,2.3463024357624818
4.896,2.3440259815542959
4.9,2.3482536822266411
4.904,2.3537822138750926
4.908,2.3550830448511988
4.912,2.353457006131066
4.916,2.3567090835713316
4.92,2.3567090835713316
4.924,2.3492293054587208
4.928,2.34174952734611
4.932,2.3430503583222162
4.936,2.3524813828989863
4.94,2.3576847068034112
4.944,2.3541074216191191
4.948,2.3537822138750926
4.952,2.3580099145474378
4.956,2.3612619919877034
4.96,2.3586603300354909
4.964,2.3599611610115971
4.968,2.3684165623562876
4.972,2.3768719637009781
4.976,2.3745955094927922
4.98,2.3713434320525266
4.984,2.3771971714450046
4.988,2.3843517418135889
4.992,2.382075287605403
4.996,2.3755711327248719
5,2.3749207172368187
5.004,2.3794736256531905
5.008,2.3765467559569515
5.012,2.3700426010764204
5.016,2.3781727946770843
5.02,2.3866281960217748
5.024,2.385002157301642
5.028,2.3794736256531905
5.032,2.3810996643733233
5.036,2.3902054812060669
5.04,2.3960592205985449
5.044,2.3989860902947839
5.048,2.4041894141992088
5.052,2.4123196077998728
5.056,2.4142708542640321
5.06,2.407766699383501
5.064,2.4019129599910229
5.068,2.3986608825507574
5.072,2.3986608825507574
5.076,2.3863029882777482
5.08,2.3758963404688984
5.084,2.3788232101651374
5.088,2.4006121290149167
5.092,2.4178481394483242
5.096,2.4354093576257583
5.1,2.4611007694038562
5.104,2.4867921811819542
5.108,2.4965484135027509
5.112,2.4932963360624854
5.116,2.5014265296631493
5.12,2.5150852549122646
5.124,2.5150852549122646
5.128,2.5050038148474414
5.132,2.4952475825266447
5.136,2.4877678044140339
5.14,2.4806132340454496
5.144,2.4659788855642546
5.148,2.456873068731511
5.152,2.4526453680591658
5.156,2.4454907976905815
5.16,2.4337833189056255
5.164,2.4305312414653599
5.168,2.4334581111615989
5.172,2.4367101886018645
5.176,2.431181656953413
5.18,2.4321572801854927
5.184,2.4347589421377052
5.188,2.4409378892742097
5.192,2.4432143434823956
5.196,2.4402874737861566
5.2,2.4487428751308471
5.204,2.448092459642794
5.208,2.3983356748067308
5.212,2.293293573486153
5.216,2.1863002257014159
5.22,2.1433728034899104
5.224,2.232479725353187
5.228,2.5115079697279725
5.232,3.0045229096722323
5.236,3.6617677603499033
5.24,4.3326713362766895
5.244,4.6877981927536894
5.248,4.7004812947707251
5.252,4.7017821257468313
5.256,4.6884486082417425
5.26,4.3977128850820009
5.264,3.6123361832578667
5.268,2.8435450763790868
5.272,2.3293916330731008
5.276,2.1485761273943353
5.28,2.1219090923841577
5.284,2.1573567364830524
5.288,2.2103655987593811
5.292,2.2419107499299571
5.296,2.2542686442029662
5.3,2.2594719681073911
5.304,2.2663013307319488
5.308,2.2685777849401347
5.312,2.2685777849401347
5.316,2.2767079785407986
5.32,2.2906919115339406
5.324,2.3007733515987638
5.328,2.2968708586704452
5.332,2.2942691967182327
5.336,2.2978464819025248
5.34,2.2971960664144717
5.344,2.2955700276943389
5.348,2.2991473128786311
5.352,2.3056514677591622
5.356,2.3108547916635871
5.36,2.3076027142233215
5.364,2.3020741825748701
5.368,2.3082531297113746
5.372,2.3154077000799589
5.376,2.3196354007523041
5.38,2.3310176717932336
5.384,2.347603266738588
5.388,2.3641888616839424
5.392,2.3693921855883673
5.396,2.3758963404688984
5.4,2.3902054812060669
5.404,2.4090675303596072
5.408,2.4217506323766429
5.412,2.4383362273219973
5.416,2.4581738997076172
5.42,2.4802880263014231
5.424,2.5007761141750962
5.428,2.5180121246085037
5.432,2.5424027054104954
5.436,2.5723218178609386
5.44,2.6025661380554084
5.444,2.6289079653215595
5.448,2.6581766622839496
5.452,2.6887461902224459
5.456,2.7124863555363845
5.46,2.7225677956012078
5.464,2.729722365969792
5.468,2.7427306757308543
5.472,2.7563894009799697
5.476,2.7498852460994385
5.48,2.7303727814578451
5.484,2.7014292922394816
5.488,2.6585018700279761
5.492,2.6038669690315146
5.496,2.5466304060828406
5.5,2.4965484135027509
5.504,2.4578486919635907
5.508,2.413620438775979
5.512,2.3632132384518627
5.516,2.3228874781925697
5.52,2.2988221051346045
5.524,2.2806104714691173
5.528,2.2646752920118161
5.532,2.2555694751790725
5.536,2.2493905280425679
5.54,2.2419107499299571
5.544,2.2305284788890276
5.548,2.2279268169368152
5.552,2.2315041021211073
5.556,2.2376830492576119
5.56,2.2376830492576119
5.564,2.2396342957217712
5.568,2.2438619963941164
5.572,2.2493905280425679
5.576,2.2458132428582758
5.58,2.2467888660903554
5.584,2.2532930209708866
5.588,2.2594719681073911
5.592,2.2562198906671256
5.596,2.2562198906671256
5.6,2.2679273694520816
5.604,2.2809356792131439
5.608,2.2861390031175688
5.612,2.2890658728138078
5.616,2.2919927425100468
5.62,2.3007733515987638
5.624,2.3056514677591622
5.628,2.3037002212950028
5.632,2.3092287529434543
5.636,2.3176841542881448
5.64,2.3199606084963307
5.644,2.3108547916635871
5.648,2.3063018832472153
5.652,2.3085783374554012
5.656,2.3108547916635871
5.66,2.3115052071516402
5.664,2.3111799994076136
5.668,2.3183345697761979
5.672,2.3232126859365962
5.676,2.3196354007523041
5.68,2.3141068691038527
5.684,2.3196354007523041
5.688,2.3254891401447821
5.692,2.3274403866089415
5.696,2.3290664253290743
5.7,2.3339445414894726
5.704,2.3391478653938975
5.708,2.3371966189297382
5.712,2.3319932950253133
5.716,2.3323185027693398
5.72,2.3401234886259772
5.724,2.3410991118580569
5.728,2.3362209956976585
5.732,2.3323185027693398
5.736,2.3352453724655788
5.74,2.3371966189297382
5.744,2.3284160098410212
5.748,2.3258143478888087
5.752,2.3293916330731008
5.756,2.3336193337454461
5.76,2.3319932950253133
5.764,2.3345949569775257
5.768,2.338822657649871
5.772,2.3423999428341631
5.776,2.3427251505781896
5.78,2.3453268125304021
5.784,2.350530136434827
5.788,2.3537822138750926
5.792,2.3541074216191191
5.796,2.3583351222914644
5.8,2.3697173933323938
5.804,2.3804492488852702
5.808,2.382075287605403
5.812,2.3830509108374827
5.816,2.3866281960217748
5.82,2.396709636086598
5.824,2.396709636086598
5.828,2.3885794424859341
5.832,2.3872786115098279
5.836,2.3918315199261997
5.84,2.3941079741343856
5.844,2.3869534037658013
5.848,2.3830509108374827
5.852,2.3869534037658013
5.856,2.3924819354142528
5.86,2.3859777805337217
5.864,2.3824004953494295
5.868,2.3882542347419076
5.872,2.3944331818784121
5.876,2.3999617135268636
5.88,2.3980104670627043
5.884,2.3986608825507574
5.888,2.3963844283425715
5.892,2.3856525727896951
5.896,2.3716686397965532
5.9,2.3661401081481017
5.904,2.3713434320525266
5.908,2.3810996643733233
5.912,2.3941079741343856
5.916,2.4126448155438993
5.92,2.4347589421377052
5.924,2.4513445370830595
5.928,2.4601251461717766
5.932,2.4617511848919094
5.936,2.4731334559328388
5.94,2.4832148959976621
5.944,2.4773611566051841
5.948,2.4734586636768654
5.952,2.4711822094686795
5.956,2.465653677820228
5.96,2.451019329339033
5.964,2.4396370582981035
5.968,2.4344337343936786
5.972,2.4321572801854927
5.976,2.425327917560935
5.98,2.4197993859124836
5.984,2.4184985549363773
5.988,2.4211002168885898
5.992,2.4197993859124836
5.996,2.4188237626804039
6,2.4211002168885898
6.004,2.4246775020728819
6.008,2.428254787257174
6.012,2.4318320724414662
6.016,2.4409378892742097
6.02,2.4545966145233251
6.024,2.4484176673868205
6.028,2.399636505782837
6.032,2.2997977283666842
6.036,2.1967068735102657
6.04,2.1489013351383619
6.044,2.2236991162644699
6.048,2.488418219902087
6.052,2.9511888396518771
6.056,3.5729860462306533
6.06,4.206165523850359
6.064,4.6663344816479366
6.068,4.6946275553782471
6.072,4.6959283863543533
6.076,4.668285728112096
6.08,4.1964092915295623
6.084,3.413309043913614
6.088,2.7134619787684642
6.092,2.2591467603633646
6.096,2.1245107543363702
6.1,2.1306897014728747
6.104,2.1654869300837163
6.108,2.2103655987593811
6.112,2.2487401125545148
6.116,2.2643500842677895
6.12,2.2741063165885862
6.124,2.2724802778684534
6.128,2.266951746220002
6.132,2.2708542391483206
6.136,2.284512964397436
6.14,2.2926431579980999
6.144,2.2929683657421265
6.148,2.2965456509264186
6.152,2.3030498058069497
6.156,2.3098791684315074
6.16,2.3059766755031887
6.164,2.307277506479295
6.168,2.3157329078239854
6.172,2.3245135169127025
6.176,2.318984985264251
6.18,2.3134564536157995
6.184,2.3167085310560651
6.188,2.3225622704485431
6.192,2.327765594352968
6.196,2.3332941260014195
6.2,2.3466276435065083
6.204,2.3680913546122611
6.208,2.3804492488852702
6.212,2.3921567276702262
6.216,2.4113439845677931
6.22,2.4321572801854927
6.224,2.4493932906189002
6.228,2.4617511848919094
6.232,2.4760603256290779
6.236,2.497198828990804
6.24,2.5176869168644771
6.244,2.5358985505299643
6.248,2.5635412087722216
6.252,2.591834282502532
6.256,2.6181761097686831
6.26,2.6383389898983296
6.264,2.6620791552122682
6.268,2.6939495141268708
6.272,2.723868626577314
6.276,2.738502975058509
6.28,2.7443567144509871
6.284,2.7547633622598369
6.288,2.7726497881812975
6.292,2.7739506191574037
6.296,2.7615927248843946
6.3,2.7433810912189074
6.304,2.7196409259049688
6.308,2.6757378804613836
6.312,2.6198021484888159
6.316,2.5654924552363809
6.32,2.5124835929600522
6.324,2.4601251461717766
6.328,2.404839829687262
6.332,2.3619124074757565
6.336,2.335895787953632
6.34,2.3105295839195605
6.344,2.2867894186056219
6.348,2.2682525771961082
6.352,2.2584963448753115
6.356,2.2493905280425679
6.36,2.2399595034657978
6.364,2.2334553485852666
6.368,2.2367074260255322
6.372,2.2389838802337181
6.376,2.2344309718173463
6.38,2.2318293098651338
6.384,2.238333464745665
6.388,2.2464636583463289
6.392,2.2503661512746476
6.396,2.2461384506023023
6.4,2.2503661512746476
6.404,2.2568703061551787
6.408,2.2555694751790725
6.412,2.2506913590186741
6.416,2.2542686442029662
6.42,2.2630492532916833
6.424,2.2656509152438957
6.428,2.261748422315577
6.432,2.2656509152438957
6.436,2.2750819398206659
6.44,2.2825617179332767
6.444,2.2838625489093829
6.448,2.2887406650697812
6.452,2.2942691967182327
6.456,2.2965456509264186
6.46,2.2968708586704452
6.464,2.2994725206226576
6.468,2.3066270909912419
6.472,2.310204376175534
6.476,2.3066270909912419
6.48,2.3010985593427904
6.484,2.3053262600151356
6.488,2.3137816613598261
6.492,2.316058115568012
6.496,2.318984985264251
6.5,2.3245135169127025
6.504,2.3287412175850477
6.508,2.3254891401447821
6.512,2.3193101930082776
6.516,2.3228874781925697
6.52,2.3316680872812867
6.524,2.3310176717932336
6.528,2.3209362317284103
6.532,2.3170337388000917
6.536,2.3258143478888087
6.54,2.3352453724655788
6.544,2.3339445414894726
6.548,2.3323185027693398
6.552,2.3381722421618178
6.556,2.3414243196020834
6.56,2.3365462034416851
6.564,2.3342697492334992
6.568,2.3414243196020834
6.572,2.3459772280184552
6.576,2.3440259815542959
6.58,2.3423999428341631
6.584,2.3498797209467739
6.588,2.362237615219783
6.592,2.3606115764996503
6.596,2.3537822138750926
6.6,2.3557334603392519
6.604,2.3628880307078362
6.608,2.3609367842436768
6.612,2.3606115764996503
6.616,2.3628880307078362
6.62,2.370367808820447
6.624,2.3768719637009781
6.628,2.3739450940047391
6.632,2.3749207172368187
6.636,2.3804492488852702
6.64,2.3837013263255358
6.644,2.3804492488852702
6.648,2.3810996643733233
6.652,2.3889046502299607
6.656,2.3915063121821731
6.66,2.3872786115098279
6.664,2.382075287605403
6.668,2.3837013263255358
6.672,2.3843517418135889
6.676,2.3749207172368187
6.68,2.3638636539399158
6.684,2.3654896926600486
6.688,2.3615871997317299
6.692,2.359310745523544
6.696,2.3697173933323938
6.7,2.3928071431582794
6.704,2.4220758401206695
6.708,2.4435395512264222
6.712,2.4565478609874845
6.716,2.4591495229396969
6.72,2.4650032623321749
6.724,2.4763855333731044
6.728,2.4734586636768654
6.732,2.4672797165403608
6.736,2.4715074172127061
6.74,2.4711822094686795
6.744,2.4650032623321749
6.748,2.4607755616598297
6.752,2.4545966145233251
6.756,2.4461412131786346
6.76,2.4328076956735458
6.764,2.4272791640250944
6.768,2.425327917560935
6.772,2.4272791640250944
6.776,2.4214254246326163
6.78,2.416547308472218
6.784,2.4211002168885898
6.788,2.4331329034175724
6.792,2.4318320724414662
6.796,2.4230514633527491
6.8,2.4256531253049616
6.804,2.4402874737861566
6.808,2.4412630970182363
6.812,2.4019129599910229
6.816,2.3076027142233215
6.82,2.2103655987593811
6.824,2.166462553315796
6.828,2.2370326337695587
6.832,2.5043533993593883
6.836,2.9654979803890456
6.84,3.5726608384866267
6.844,4.1983605379937217
6.848,4.6617815732315648
6.852,4.6926763089140877
6.856,4.6946275553782471
6.86,4.6614563654875383
6.864,4.1450264679733664
6.868,3.3716824526782148
6.872,2.6932990986388177
6.876,2.2497157357865945
6.88,2.1277628317766357
6.884,2.1485761273943353
6.888,2.189877510885708
6.892,2.2341057640733197
6.896,2.2750819398206659
6.9,2.2994725206226576
6.904,2.3176841542881448
6.908,2.3215866472164635
6.912,2.3202858162403572
6.916,2.3267899711208884
6.92,2.3401234886259772
6.924,2.3489040977146942
6.928,2.3580099145474378
6.932,2.3667905236361548
6.936,2.3726442630286328
6.94,2.373294678516686
6.944,2.370367808820447
6.948,2.3804492488852702
6.952,2.387929026997881
6.956,2.3957340128545184
6.96,2.3944331818784121
6.964,2.3869534037658013
6.968,2.3876038192538545
6.972,2.3980104670627043
6.976,2.4022381677350495
6.98,2.4038642064551823
6.984,2.4123196077998728
6.988,2.4292304104892537
6.992,2.4318320724414662
6.996,2.4435395512264222
7,2.4695561707485467
7.004,2.4929711283184588
7.008,2.5089063077757601
7.012,2.5248414872330613
7.016,2.5511833144992124
7.02,2.5723218178609386
7.024,2.5928099057346117
7.028,2.6139484090963379
7.032,2.6441927292908076
7.036,2.6702093488129321
7.04,2.704030954191694
7.044,2.7323240279220045
7.048,2.758340647444129
7.052,2.7749262423894834
7.056,2.7921622528228909
7.06,2.7996420309355017
7.064,2.8035445238638204
7.068,2.8080974322801922
7.072,2.8217561575293075
7.076,2.8295611433859449
7.08,2.8168780413689092
7.084,2.7911866295908112
7.088,2.7596414784202352
7.092,2.7102099013281986
7.096,2.6497212609392591
7.1,2.600614891591249
7.104,2.554435391939478
7.108,2.4988248677109368
7.112,2.4435395512264222
7.116,2.4035389987111557
7.12,2.3752459249808453
7.124,2.3443511892983224
7.128,2.3170337388000917
7.132,2.2975212741584983
7.136,2.2906919115339406
7.14,2.2809356792131439
7.144,2.2623988378036302
7.148,2.2620736300596036
7.152,2.2633744610357098
7.156,2.2640248765237629
7.16,2.250040943530621
7.164,2.2513417745067272
7.168,2.2623988378036302
7.172,2.266951746220002
7.176,2.2663013307319488
7.18,2.2591467603633646
7.184,2.2555694751790725
7.188,2.2614232145715505
7.192,2.261748422315577
7.196,2.250040943530621
7.2,2.2467888660903554
7.204,2.2630492532916833
7.208,2.2695534081722144
7.212,2.2724802778684534
7.216,2.2773583940288518
7.22,2.2952448199503124
7.224,2.304350636783056
7.228,2.2978464819025248
7.232,2.2978464819025248
7.236,2.3085783374554012
7.24,2.3056514677591622
7.244,2.2994725206226576
7.248,2.3007733515987638
7.252,2.3033750135509763
7.256,2.3023993903188966
7.26,2.2952448199503124
7.264,2.2978464819025248
7.268,2.3089035451994278
7.272,2.3082531297113746
7.276,2.2991473128786311
7.28,2.3001229361107107
7.284,2.3046758445270825
7.288,2.3095539606874809
7.292,2.3066270909912419
7.296,2.301423767086817
7.3,2.3085783374554012
7.304,2.3206110239843838
7.308,2.3176841542881448
7.312,2.3228874781925697
7.316,2.3316680872812867
7.32,2.3394730731379241
7.324,2.3397982808819506
7.328,2.3209362317284103
7.332,2.3232126859365962
7.336,2.3336193337454461
7.34,2.3378470344177913
7.344,2.3336193337454461
7.348,2.3362209956976585
7.352,2.3407739041140303
7.356,2.3332941260014195
7.36,2.3342697492334992
7.364,2.3319932950253133
7.368,2.3430503583222162
7.372,2.3557334603392519
7.376,2.34174952734611
7.38,2.3440259815542959
7.384,2.3557334603392519
7.388,2.3498797209467739
7.392,2.3495545132027473
7.396,2.356383875827305
7.4,2.3667905236361548
7.404,2.3589855377795175
7.408,2.3560586680832785
7.412,2.3394730731379241
7.416,2.3355705802096054
7.42,2.3430503583222162
7.424,2.3508553441788536
7.428,2.3596359532675706
7.432,2.3589855377795175
7.436,2.3638636539399158
7.44,2.3830509108374827
7.444,2.4035389987111557
7.448,2.4204498014005367
7.452,2.4415883047622629
7.456,2.4441899667144753
7.46,2.4344337343936786
7.464,2.4500437061069533
7.468,2.4571982764755376
7.472,2.4552470300113782
7.476,2.4383362273219973
7.48,2.41069356907974
7.484,2.4126448155438993
7.488,2.4162221007281914
7.492,2.3950835973664653
7.496,2.3752459249808453
7.5,2.3677661468682345
7.504,2.3739450940047391
7.508,2.3814248721173499
7.512,2.3931323509023059
7.516,2.3931323509023059
7.52,2.4009373367589433
7.524,2.4019129599910229
7.528,2.3882542347419076
7.532,2.3866281960217748
7.536,2.4009373367589433
7.54,2.4071162838954479
7.544,2.4058154529193416
7.548,2.3918315199261997
7.552,2.3167085310560651
7.556,2.2054874825989828
7.56,2.1404459337936714
7.564,2.1771944088686723
7.568,2.4061406606633682
7.572,2.8142763794166967
7.576,3.3681051674939226
7.58,3.9970569444412831
7.584,4.542105123429792
7.588,4.68584694628953
7.592,4.6926763089140877
7.596,4.6715378055523615
7.6,4.2390115059970412
7.604,3.3996503186644986
7.608,2.6689085178368259
7.612,2.1658121378277428
7.616,1.9993057728861459
7.62,2.0467861035140231
7.624,2.1186570149438921
7.628,2.1612592294113711
7.632,2.2093899755273014
7.636,2.266951746220002
7.64,2.2900414960458875
7.644,2.2919927425100468
7.648,2.296220443182392
7.652,2.313131245871773
7.656,2.3329689182573929
7.66,2.3502049286908004
7.664,2.3489040977146942
7.668,2.344676397042349
7.672,2.3599611610115971
7.676,2.3619124074757565
7.68,2.3544326293631457
7.684,2.3638636539399158
7.688,2.3739450940047391
7.692,2.3758963404688984
7.696,2.3700426010764204
7.7,2.3625628229638096
7.704,2.379148417909164
7.708,2.3843517418135889
7.712,2.3742703017487656
7.716,2.3654896926600486
7.72,2.3778475869330578
7.724,2.3973600515746512
7.728,2.4032137909671292
7.732,2.4113439845677931
7.736,2.4396370582981035
7.74,2.4441899667144753
7.744,2.4519949525711127
7.748,2.4724830404447857
7.752,2.4994752831989899
7.756,2.5186625400965568
7.76,2.5472808215708937
7.764,2.5866309585981071
7.768,2.6119971626321785
7.772,2.6341112892259844
7.776,2.6679328946047463
7.78,2.7066326161439065
7.784,2.7398038060346153
7.788,2.7733002036693506
7.792,2.7905362141027581
7.796,2.8022436928877141
7.8,2.8129755484405905
7.804,2.8337888440582901
7.808,2.8204553265532013
7.812,2.8077722245361656
7.816,2.7905362141027581
7.82,2.7550885700038634
7.824,2.7098846935841721
7.828,2.6627295707003213
7.832,2.5986636451270897
7.836,2.5391506279702298
7.84,2.476710741117131
7.844,2.4110187768237665
7.848,2.3554082525952253
7.852,2.3180093620321713
7.856,2.2861390031175688
7.86,2.2565450984111521
7.864,2.2373578415135853
7.868,2.2347561795613728
7.872,2.2341057640733197
7.876,2.2145932994317263
7.88,2.2006093664385844
7.884,2.1950808347901329
7.888,2.1937800038140267
7.892,2.1895523031416815
7.896,2.1892270953976549
7.9,2.1954060425341595
7.904,2.2084143522952218
7.908,2.2103655987593811
7.912,2.1983329122303985
7.916,2.1817473172850441
7.92,2.1820725250290707
7.924,2.1859750179573894
7.928,2.1843489792372566
7.932,2.178170032100752
7.936,2.1807716940529644
7.94,2.1853246024693362
7.944,2.1892270953976549
7.948,2.1947556270461064
7.952,2.2084143522952218
7.956,2.2197966233361512
7.96,2.224349531752523
7.964,2.2259755704726558
7.968,2.2376830492576119
7.972,2.2461384506023023
7.976,2.2432115809060633
7.98,2.2344309718173463
7.984,2.2311788943770807
7.988,2.235406595049426
7.992,2.2458132428582758
7.996,2.2399595034657978
8,2.25296781322686
8.004,2.2594719681073911
8.008,2.2656509152438957
8.012,2.2718298623804003
8.016,2.2731306933565065
8.02,2.2731306933565065
8.024,2.2724802778684534
8.028,2.266951746220002
8.032,2.2754071475646924
8.036,2.2832121334213298
8.04,2.2806104714691173
8.044,2.2685777849401347
8.048,2.2718298623804003
8.052,2.2828869256773032
8.056,2.2835373411653563
8.06,2.2773583940288518
8.064,2.2793096404930111
8.068,2.2893910805578344
8.072,2.2916675347660203
8.076,2.287439834093675
8.08,2.2958952354383655
8.084,2.3085783374554012
8.088,2.3206110239843838
8.092,2.3108547916635871
8.096,2.2971960664144717
8.1,2.3023993903188966
8.104,2.3079279219673481
8.108,2.304350636783056
8.112,2.2890658728138078
8.116,2.2776836017728783
8.12,2.2799600559810642
8.124,2.2809356792131439
8.128,2.2949196122062858
8.132,2.3089035451994278
8.136,2.327765594352968
8.14,2.3456520202744287
8.144,2.3586603300354909
8.148,2.3684165623562876
8.152,2.3758963404688984
8.156,2.3784980024211109
8.16,2.3784980024211109
8.164,2.3960592205985449
8.168,2.4097179458476603
8.172,2.4116691923118196
8.176,2.3863029882777482
8.18,2.3749207172368187
8.184,2.3690669778443407
8.188,2.3654896926600486
8.192,2.3632132384518627
8.196,2.3589855377795175
8.2,2.3628880307078362
8.204,2.3680913546122611
8.208,2.3710182243085001
8.212,2.3697173933323938
8.216,2.3658149004040752
8.22,2.3716686397965532
8.224,2.3752459249808453
8.228,2.3713434320525266
8.232,2.3710182243085001
8.236,2.3771971714450046
8.24,2.3882542347419076
8.244,2.3833761185815092
8.248,2.3479284744826145
8.252,2.2532930209708866
8.256,2.1410963492817245
8.26,2.0874370715173427
8.264,2.1765439933806192
8.268,2.4871173889259808
8.272,2.9837096140545327
8.276,3.6194907536264509
8.28,4.260475217102794
8.284,4.6757655062247068
8.288,4.6956031786103267
8.292,4.6930015166581143
8.296,4.6471472247503698
8.3,4.0429112363490276
8.304,3.2204608517058659
8.308,2.4988248677109368
8.312,2.0640221139474306
8.316,1.9622320900671184
8.32,1.999956188374199
8.324,2.0448348570498638
8.328,2.0903639412135817
8.332,2.1355678176332731
8.336,2.1612592294113711
8.34,2.1671129688038491
8.344,2.166462553315796
8.348,2.169389423012035
8.352,2.178170032100752
8.356,2.1849993947253097
8.36,2.1836985637492035
8.364,2.1820725250290707
8.368,2.1859750179573894
8.372,2.1879262644215487
8.376,2.1807716940529644
8.38,2.18402377149323
8.384,2.1963816657662392
8.388,2.2119916374795139
8.392,2.2149185071757529
8.396,2.212642052967567
8.4,2.2113412219914608
8.404,2.2093899755273014
8.408,2.206788313575089
8.412,2.2158941304078326
8.416,2.238333464745665
8.42,2.2591467603633646
8.424,2.2666265384759754
8.428,2.2679273694520816
8.432,2.278659225004958
8.436,2.2958952354383655
8.44,2.3030498058069497
8.444,2.3095539606874809
8.448,2.3297168408171274
8.452,2.356383875827305
8.456,2.3804492488852702
8.46,2.4041894141992088
8.464,2.4305312414653599
8.468,2.4789871953253169
8.472,2.5137844239361584
8.476,2.5342725118098315
8.48,2.5586630926118232
8.484,2.5983384373830631
8.488,2.6373633666662499
8.492,2.6513472996593919
8.496,2.6656564403965604
8.5,2.6828924508299679
8.504,2.7020797077275347
8.508,2.715088017488597
8.512,2.7082586548640393
8.516,2.6877705669903662
8.52,2.6562254158197902
8.524,2.6152492400724441
8.528,2.5622403777961154
8.532,2.5092315155197866
8.536,2.4760603256290779
8.54,2.4389866428100504
8.544,2.3941079741343856
8.548,2.3619124074757565
8.552,2.3371966189297382
8.556,2.3157329078239854
8.56,2.2945944044622593
8.564,2.2802852637250908
8.568,2.2685777849401347
8.572,2.2562198906671256
8.576,2.2396342957217712
8.58,2.235406595049426
8.584,2.2519921899947803
8.588,2.2656509152438957
8.592,2.2685777849401347
8.596,2.2591467603633646
8.6,2.2591467603633646
8.604,2.2705290314042941
8.608,2.2721550701244269
8.612,2.2630492532916833
8.616,2.2656509152438957
8.62,2.2711794468923472
8.624,2.2747567320766393
8.628,2.2737811088445596
8.632,2.2796348482370377
8.636,2.2929683657421265
8.64,2.3023993903188966
8.644,2.2997977283666842
8.648,2.2981716896465514
8.652,2.3023993903188966
8.656,2.3050010522711091
8.66,2.3108547916635871
8.664,2.3170337388000917
8.668,2.335895787953632
8.672,2.3443511892983224
8.676,2.3323185027693398
8.68,2.3310176717932336
8.684,2.3313428795372602
8.688,2.3336193337454461
8.692,2.3271151788649149
8.696,2.3147572845919058
8.7,2.318984985264251
8.704,2.3228874781925697
8.708,2.3254891401447821
8.712,2.3264647633768618
8.716,2.3251639324007556
8.72,2.3313428795372602
8.724,2.3391478653938975
8.728,2.3381722421618178
8.732,2.3378470344177913
8.736,2.3469528512505349
8.74,2.3528065906430129
8.744,2.3397982808819506
8.748,2.335895787953632
8.752,2.344676397042349
8.756,2.3515057596669067
8.76,2.3391478653938975
8.764,2.3368714111857116
8.768,2.3430503583222162
8.772,2.3410991118580569
8.776,2.3323185027693398
8.78,2.3297168408171274
8.784,2.335895787953632
8.788,2.3420747350901365
8.792,2.3427251505781896
8.796,2.3368714111857116
8.8,2.3323185027693398
8.804,2.3404486963700037
8.808,2.3498797209467739
8.812,2.353457006131066
8.816,2.3576847068034112
8.82,2.365164484916022
8.824,2.3739450940047391
8.828,2.385002157301642
8.832,2.399636505782837
8.836,2.4123196077998728
8.84,2.4155716852401383
8.844,2.407766699383501
8.848,2.3986608825507574
8.852,2.3895550657180138
8.856,2.3807744566292968
8.86,2.3755711327248719
8.864,2.3716686397965532
8.868,2.3794736256531905
8.872,2.3856525727896951
8.876,2.3837013263255358
8.88,2.387929026997881
8.884,2.3950835973664653
8.888,2.4051650374312885
8.892,2.3999617135268636
8.896,2.3902054812060669
8.9,2.4002869212708902
8.904,2.4097179458476603
8.908,2.413620438775979
8.912,2.3905306889500935
8.916,2.3287412175850477
8.92,2.2318293098651338
8.924,2.1472752964182291
8.928,2.1521534125786275
8.932,2.344676397042349
8.936,2.746633168659173
8.94,3.3365600163233466
8.944,4.0126669161545578
8.948,4.6149516580917407
8.952,4.6952779708663002
8.956,4.7021073334908579
8.96,4.6956031786103267
8.964,4.573650274600368
8.968,3.8516890828614123
8.972,3.0575317719485611
8.976,2.4132952310319524
8.98,2.1303644937288482
8.984,2.0812581243808381
8.988,2.1098764058551751
8.992,2.155405490018893
8.996,2.1996337432065047
9,2.2289024401688948
9.004,2.2357318027934525
9.008,2.2318293098651338
9.012,2.2298780634009745
9.016,2.2341057640733197
9.02,2.2484149048104882
9.024,2.2646752920118161
9.028,2.269878615916241
9.032,2.2789844327489845
9.036,2.287439834093675
9.04,2.2867894186056219
9.044,2.2731306933565065
9.048,2.269878615916241
9.052,2.2812608869571704
9.056,2.2952448199503124
9.06,2.296220443182392
9.064,2.2984968973905779
9.068,2.2991473128786311
9.072,2.3017489748308435
9.076,2.301423767086817
9.08,2.3056514677591622
9.084,2.3173589465441182
9.088,2.3287412175850477
9.092,2.335895787953632
9.096,2.3469528512505349
9.1,2.3606115764996503
9.104,2.3739450940047391
9.108,2.3843517418135889
9.112,2.3957340128545184
9.116,2.4158968929841649
9.12,2.439311850554077
9.124,2.4591495229396969
9.128,2.4718326249567326
9.132,2.494271959294565
9.136,2.525817110465141
9.14,2.5534597687073983
9.144,2.580126803717576
9.148,2.6064686309837271
9.152,2.6279323420894798
9.156,2.6454935602669138
9.16,2.6562254158197902
9.164,2.6620791552122682
9.168,2.6708597643009853
9.172,2.6845184895501006
9.176,2.6861445282702334
9.18,2.6741118417412508
9.184,2.6532985461235512
9.188,2.629233173065586
9.192,2.5872813740861602
9.196,2.5352481350419112
9.2,2.4890686353901401
9.204,2.4458160054346081
9.208,2.3976852593186777
9.212,2.3495545132027473
9.216,2.3141068691038527
9.22,2.2897162883018609
9.224,2.2685777849401347
9.228,2.2451628273702227
9.232,2.2350813873053994
9.236,2.2337805563292932
9.24,2.2298780634009745
9.244,2.2168697536399122
9.248,2.2077639368071686
9.252,2.2100403910153545
9.256,2.2100403910153545
9.26,2.2002841586945578
9.264,2.2002841586945578
9.268,2.2061378980870359
9.272,2.2136176761996467
9.276,2.2113412219914608
9.28,2.2071135213191155
9.284,2.2080891445511952
9.288,2.2110160142474342
9.292,2.2100403910153545
9.296,2.2054874825989828
9.3,2.2077639368071686
9.304,2.2194714155921247
9.308,2.224349531752523
9.312,2.2269511937047355
9.316,2.2334553485852666
9.32,2.2409351266978774
9.324,2.2445124118821695
9.328,2.2399595034657978
9.332,2.2432115809060633
9.336,2.2490653202985413
9.34,2.2545938519469928
9.344,2.25296781322686
9.348,2.2506913590186741
9.352,2.2552442674350459
9.356,2.2584963448753115
9.36,2.25296781322686
9.364,2.25296781322686
9.368,2.2562198906671256
9.372,2.2640248765237629
9.376,2.2653257074998692
9.38,2.2650004997558426
9.384,2.269878615916241
9.388,2.275732355308719
9.392,2.2747567320766393
9.396,2.2708542391483206
9.4,2.2702038236602675
9.404,2.2731306933565065
9.408,2.2711794468923472
9.412,2.2676021617080551
9.416,2.2724802778684534
9.42,2.278659225004958
9.424,2.2783340172609314
9.428,2.2741063165885862
9.432,2.2799600559810642
9.436,2.2900414960458875
9.44,2.2965456509264186
9.444,2.2929683657421265
9.448,2.2890658728138078
9.452,2.2900414960458875
9.456,2.2864642108615953
9.46,2.2741063165885862
9.464,2.2708542391483206
9.468,2.2760575630527455
9.472,2.2854885876295157
9.476,2.2858137953735422
9.48,2.2802852637250908
9.484,2.2783340172609314
9.488,2.284512964397436
9.492,2.2942691967182327
9.496,2.3085783374554012
9.5,2.3150824923359323
9.504,2.3115052071516402
9.508,2.3037002212950028
9.512,2.313131245871773
9.516,2.3336193337454461
9.52,2.3537822138750926
9.524,2.3583351222914644
9.528,2.3531317983870395
9.532,2.3466276435065083
9.536,2.3427251505781896
9.54,2.3397982808819506
9.544,2.3329689182573929
9.548,2.3293916330731008
9.552,2.3345949569775257
9.556,2.3440259815542959
9.56,2.3459772280184552
9.564,2.347603266738588
9.568,2.356383875827305
9.572,2.3641888616839424
9.576,2.359310745523544
9.58,2.3537822138750926
9.584,2.3580099145474378
9.588,2.3667905236361548
9.592,2.3680913546122611
9.596,2.3489040977146942
9.6,2.290366703789914
9.604,2.192804380581947
9.608,2.1007705890224315
9.612,2.0897135257255286
9.616,2.2464636583463289
9.62,2.6103711239120457
9.624,3.172004897845909
9.628,3.8448597202368546
9.632,4.47901482108864
9.636,4.6907250624499284
9.64,4.6988552560505923
9.644,4.6933267244021408
9.648,4.5661704964877572
9.652,3.8503882518853061
9.656,3.0640359268290922
9.66,2.4035389987111557
9.664,2.0828841631009709
9.668,2.0168669910635799
9.672,2.0380054944253061
9.676,2.0848354095651302
9.68,2.1342669866571669
9.684,2.1690642152680084
9.688,2.1814221095410176
9.692,2.1823977327730972
9.696,2.1807716940529644
9.7,2.1911783418618143
9.704,2.2051622748549562
9.708,2.2139428839436732
9.712,2.2207722465682309
9.716,2.2305284788890276
9.72,2.2428863731620368
9.724,2.2422359576739836
9.728,2.2363822182815056
9.732,2.2396342957217712
9.736,2.2474392815784086
9.74,2.2536182287149131
9.744,2.2497157357865945
9.748,2.2461384506023023
9.752,2.2493905280425679
9.756,2.2578459293872584
9.76,2.2610980068275239
9.764,2.2663013307319488
9.768,2.2828869256773032
9.772,2.2923179502540734
9.776,2.2965456509264186
9.78,2.3033750135509763
9.784,2.3193101930082776
9.788,2.3397982808819506
9.792,2.3524813828989863
9.796,2.3671157313801814
9.8,2.3872786115098279
9.804,2.4087423226155806
9.808,2.4204498014005367
9.812,2.4363849808578379
9.816,2.4588243151956704
9.82,2.4867921811819542
9.824,2.5102071387518663
9.828,2.5306952266255394
9.832,2.5567118461476639
9.836,2.5846797121339478
9.84,2.6045173845195677
9.844,2.6097207084239926
9.848,2.6172004865366034
9.852,2.6272819266014267
9.856,2.6376885744102765
9.86,2.6311844195297454
9.864,2.6194769407447893
9.868,2.6045173845195677
9.872,2.5850049198779743
9.876,2.5482564448029734
9.88,2.4991500754549634
9.884,2.4575234842195641
9.888,2.4217506323766429
9.892,2.3778475869330578
9.896,2.3349201647215523
9.9,2.3004481438547373
9.904,2.2705290314042941
9.908,2.2419107499299571
9.912,2.2165445458958857
9.916,2.20386144387885
9.92,2.1980077044863719
9.924,2.1947556270461064
9.928,2.1892270953976549
9.932,2.1827229405171238
9.936,2.1882514721655753
9.94,2.1902027186297346
9.944,2.1892270953976549
9.948,2.1941052115580533
9.952,2.1983329122303985
9.956,2.2012597819266375
9.96,2.1973572889983188
9.964,2.1941052115580533
9.968,2.1989833277184516
9.972,2.2058126903430093
9.976,2.2035362361348234
9.98,2.2006093664385844
9.984,2.2074387290631421
9.988,2.2191462078480981
9.992,2.2240243240084965
9.996,2.2266259859607089
10,2.2380082570016384
10.004,2.2484149048104882
10.008,2.2523173977388069
10.012,2.25296781322686
10.016,2.2571955138992053
10.02,2.2636996687797364
10.024,2.2643500842677895
10.028,2.2604475913394708
10.032,2.2597971758514177
10.036,2.2653257074998692
10.04,2.2682525771961082
10.044,2.2659761229879223
10.048,2.2663013307319488
10.052,2.2679273694520816
10.056,2.2695534081722144
10.06,2.266951746220002
10.064,2.2711794468923472
10.068,2.2809356792131439
10.072,2.290366703789914
10.076,2.2926431579980999
10.08,2.2929683657421265
10.084,2.2994725206226576
10.088,2.3063018832472153
10.092,2.3030498058069497
10.096,2.2952448199503124
10.1,2.2978464819025248
10.104,2.3108547916635871
10.108,2.3186597775202245
10.112,2.3183345697761979
10.116,2.3232126859365962
10.12,2.3326437105133664
10.124,2.3414243196020834
10.128,2.3420747350901365
10.132,2.3443511892983224
10.136,2.3472780589945614
10.14,2.3515057596669067
10.144,2.3524813828989863
10.148,2.3521561751549598
10.152,2.3547578371071722
10.156,2.3596359532675706
10.16,2.3518309674109332
10.164,2.3502049286908004
10.168,2.3609367842436768
10.172,2.3674409391242079
10.176,2.3586603300354909
10.18,2.3495545132027473
10.184,2.3518309674109332
10.188,2.3602863687556237
10.192,2.3580099145474378
10.196,2.3437007738102693
10.2,2.3368714111857116
10.204,2.3355705802096054
10.208,2.3355705802096054
10.212,2.3365462034416851
10.216,2.3410991118580569
10.22,2.3479284744826145
10.224,2.3547578371071722
10.228,2.3648392771719955
10.232,2.3824004953494295
10.236,2.396709636086598
10.24,2.4002869212708902
10.244,2.3944331818784121
10.248,2.4074414916394744
10.252,2.434108526649652
10.256,2.4526453680591658
10.26,2.4474420441547409
10.264,2.4302060337213334
10.268,2.4188237626804039
10.272,2.4061406606633682
10.276,2.3882542347419076
10.28,2.3745955094927922
10.284,2.3742703017487656
10.288,2.3807744566292968
10.292,2.3837013263255358
10.296,2.379148417909164
10.3,2.3817500798613764
10.304,2.3872786115098279
10.308,2.3889046502299607
10.312,2.3882542347419076
10.316,2.3921567276702262
10.32,2.4006121290149167
10.324,2.4019129599910229
10.328,2.4015877522469964
10.332,2.4009373367589433
10.336,2.3729694707726594
10.34,2.290366703789914
10.344,2.1902027186297346
10.348,2.149551750626415
10.352,2.2328049330972135
10.356,2.5024021528952289
10.36,2.9589938255085144
10.364,3.5781893701350782
10.368,4.2159217561711557
10.372,4.6679605203680694
10.376,4.6926763089140877
10.38,4.6923511011700612
10.384,4.6383666156616528
10.388,4.0549439228780102
10.392,3.2731445062381681
10.396,2.5937855289666913
10.4,2.1905279263737611
10.404,2.0936160186538473
10.408,2.1017462122545112
10.412,2.1316653247049544
10.416,2.1836985637492035
10.42,2.2279268169368152
10.424,2.2454880351142492
10.428,2.2396342957217712
10.432,2.2396342957217712
10.436,2.2477644893224351
10.44,2.2584963448753115
10.444,2.2666265384759754
10.448,2.2776836017728783
10.452,2.2851633798854891
10.456,2.2871146263496485
10.46,2.2838625489093829
10.464,2.2783340172609314
10.468,2.2767079785407986
10.472,2.2773583940288518
10.476,2.2754071475646924
10.48,2.2747567320766393
10.484,2.278659225004958
10.488,2.2861390031175688
10.492,2.2861390031175688
10.496,2.2832121334213298
10.5,2.2867894186056219
10.504,2.3017489748308435
10.508,2.3137816613598261
10.512,2.3241883091686759
10.516,2.338822657649871
10.52,2.3560586680832785
10.524,2.3697173933323938
10.528,2.376221548212925
10.532,2.3866281960217748
10.536,2.4045146219432354
10.54,2.4227262556087226
10.544,2.4380110195779707
10.548,2.4575234842195641
10.552,2.4841905192297418
10.556,2.5105323464958929
10.56,2.5339473040658049
10.564,2.5576874693797436
10.568,2.5833788811578415
10.572,2.6113467471441254
10.576,2.6295583808096126
10.58,2.6415910673385952
10.584,2.6581766622839496
10.588,2.6708597643009853
10.592,2.672485803021118
10.596,2.669558933324879
10.6,2.6656564403965604
10.604,2.6601279087481089
10.608,2.6393146131304093
10.612,2.6061434232397005
10.616,2.5667932862124871
10.62,2.5232154485129286
10.624,2.4770359488611575
10.628,2.4272791640250944
10.632,2.3856525727896951
10.636,2.3544326293631457
10.64,2.3202858162403572
10.644,2.2871146263496485
10.648,2.261748422315577
10.652,2.2503661512746476
10.656,2.2425611654180102
10.66,2.2276016091927886
10.664,2.2207722465682309
10.668,2.2197966233361512
10.672,2.2201218310801778
10.676,2.2139428839436732
10.68,2.2087395600392483
10.684,2.2123168452235404
10.688,2.2181705846160185
10.692,2.2168697536399122
10.696,2.2093899755273014
10.7,2.2106908065034077
10.704,2.2181705846160185
10.708,2.218495792360045
10.712,2.2197966233361512
10.716,2.2223982852883637
10.72,2.2318293098651338
10.724,2.2409351266978774
10.728,2.2432115809060633
10.732,2.2474392815784086
10.736,2.2562198906671256
10.74,2.2591467603633646
10.744,2.2591467603633646
10.748,2.2640248765237629
10.752,2.2767079785407986
10.756,2.2835373411653563
10.76,2.2812608869571704
10.764,2.2793096404930111
10.768,2.2796348482370377
10.772,2.2806104714691173
10.776,2.2754071475646924
10.78,2.2741063165885862
10.784,2.2793096404930111
10.788,2.2887406650697812
10.792,2.293293573486153
10.796,2.2942691967182327
10.8,2.2926431579980999
10.804,2.2952448199503124
10.808,2.2958952354383655
10.812,2.2913423270219937
10.816,2.2867894186056219
10.82,2.2906919115339406
10.824,2.2952448199503124
10.828,2.296220443182392
10.832,2.3017489748308435
10.836,2.304350636783056
10.84,2.3010985593427904
10.844,2.3017489748308435
10.848,2.304350636783056
10.852,2.3105295839195605
10.856,2.313131245871773
10.86,2.304350636783056
10.864,2.3010985593427904
10.868,2.3124808303837199
10.872,2.3258143478888087
10.876,2.3258143478888087
10.88,2.3251639324007556
10.884,2.3300420485611539
10.888,2.338822657649871
10.892,2.3394730731379241
10.896,2.3319932950253133
10.9,2.335895787953632
10.904,2.3423999428341631
10.908,2.3401234886259772
10.912,2.3287412175850477
10.916,2.3215866472164635
10.92,2.3228874781925697
10.924,2.327765594352968
10.928,2.3293916330731008
10.932,2.327765594352968
10.936,2.3300420485611539
10.94,2.3371966189297382
10.944,2.3345949569775257
10.948,2.3300420485611539
10.952,2.3375218266737647
10.956,2.3381722421618178
10.96,2.3300420485611539
10.964,2.3297168408171274
10.968,2.330692464049207
10.972,2.3332941260014195
10.976,2.3349201647215523
10.98,2.3352453724655788
10.984,2.3440259815542959
10.988,2.3615871997317299
10.992,2.3797988333972171
10.996,2.3944331818784121
11,2.4022381677350495
11.004,2.4019129599910229
11.008,2.41069356907974
11.012,2.4285799950012006
11.016,2.442238720250316
11.02,2.4519949525711127
11.024,2.4467916286666878
11.028,2.4305312414653599
11.032,2.422401047864696
11.036,2.4188237626804039
11.04,2.4178481394483242
11.044,2.4071162838954479
11.048,2.3954088051104918
11.052,2.3957340128545184
11.056,2.404839829687262
11.06,2.399636505782837
11.064,2.3957340128545184
11.068,2.404839829687262
11.072,2.407766699383501
11.076,2.4025633754790761
11.08,2.3989860902947839
11.084,2.413620438775979
11.088,2.4285799950012006
11.092,2.4331329034175724
11.096,2.4250027098169085
11.1,2.385002157301642
11.104,2.2916675347660203
11.108,2.1915035496058408
11.112,2.1687390075239819
11.116,2.3004481438547373
11.12,2.6357373279461171
11.124,3.1394841234432533
11.128,3.7690863158786669
11.132,4.3837289520888589
11.136,4.6845461153134238
11.14,4.6965788018424064
11.144,4.6907250624499284
11.148,4.5616175880713854
11.152,3.8487622131651733
11.156,3.0841988069587387
11.16,2.4500437061069533
11.164,2.1313401169609278
11.168,2.0825589553569444
11.172,2.1199578459199984
11.176,2.1667877610598225
11.18,2.2119916374795139
11.184,2.2490653202985413
11.188,2.2708542391483206
11.192,2.2754071475646924
11.196,2.2702038236602675
11.2,2.2682525771961082
11.204,2.2773583940288518
11.208,2.2994725206226576
11.212,2.3193101930082776
11.216,2.3264647633768618
11.22,2.3329689182573929
11.224,2.34174952734611
11.228,2.3349201647215523
11.232,2.3271151788649149
11.236,2.3329689182573929
11.24,2.3410991118580569
11.244,2.3378470344177913
11.248,2.3368714111857116
11.252,2.3423999428341631
11.256,2.3453268125304021
11.26,2.3401234886259772
11.264,2.3466276435065083
11.268,2.3544326293631457
11.272,2.3693921855883673
11.276,2.373294678516686
11.28,2.3775223791890312
11.284,2.3934575586463325
11.288,2.419474178168457
11.292,2.4380110195779707
11.296,2.4441899667144753
11.3,2.4611007694038562
11.304,2.4893938431341667
11.308,2.5076054767996538
11.312,2.5254919027211145
11.316,2.5599639235879295
11.32,2.5986636451270897
11.324,2.6240298491611611
11.328,2.6415910673385952
11.332,2.6627295707003213
11.336,2.6848436972941272
11.34,2.7124863555363845
11.344,2.723868626577314
11.348,2.7381777673144825
11.352,2.7489096228673588
11.356,2.7489096228673588
11.36,2.7362265208503231
11.364,2.7261450807854999
11.368,2.7167140562087297
11.372,2.6962259683350567
11.376,2.6523229228914715
11.38,2.5973628141509835
11.384,2.548581652547
11.388,2.5014265296631493
11.392,2.4487428751308471
11.396,2.3947583896224387
11.4,2.3508553441788536
11.404,2.304350636783056
11.408,2.2610980068275239
11.412,2.2373578415135853
11.416,2.2360570105374791
11.42,2.2458132428582758
11.424,2.2419107499299571
11.428,2.2220730775443371
11.432,2.2087395600392483
11.436,2.2032110283907969
11.44,2.2015849896706641
11.444,2.1970320812542923
11.448,2.1957312502781861
11.452,2.2032110283907969
11.456,2.2035362361348234
11.46,2.1941052115580533
11.464,2.1876010566775221
11.468,2.1963816657662392
11.472,2.2119916374795139
11.476,2.2113412219914608
11.48,2.2129672607115936
11.484,2.2279268169368152
11.488,2.2334553485852666
11.492,2.2259755704726558
11.496,2.2279268169368152
11.5,2.2350813873053994
11.504,2.2513417745067272
11.508,2.2620736300596036
11.512,2.258821552619338
11.516,2.2604475913394708
11.52,2.2656509152438957
11.524,2.2692282004281878
11.528,2.2571955138992053
11.532,2.2539434364589397
11.536,2.2562198906671256
11.54,2.2601223835954443
11.544,2.2646752920118161
11.548,2.2643500842677895
11.552,2.2650004997558426
11.556,2.2672769539640285
11.56,2.255894682923099
11.564,2.2497157357865945
11.568,2.2581711371312849
11.572,2.2747567320766393
11.576,2.2672769539640285
11.58,2.258821552619338
11.584,2.2614232145715505
11.588,2.2789844327489845
11.592,2.2848381721414626
11.596,2.2854885876295157
11.6,2.2825617179332767
11.604,2.2841877566534095
11.608,2.2877650418377016
11.612,2.2828869256773032
11.616,2.278659225004958
11.62,2.2919927425100468
11.624,2.3076027142233215
11.628,2.3010985593427904
11.632,2.287439834093675
11.636,2.2819113024452236
11.64,2.2838625489093829
11.644,2.2919927425100468
11.648,2.2955700276943389
11.652,2.2939439889742061
11.656,2.2893910805578344
11.66,2.2789844327489845
11.664,2.2832121334213298
11.668,2.2991473128786311
11.672,2.3076027142233215
11.676,2.3082531297113746
11.68,2.3033750135509763
11.684,2.3098791684315074
11.688,2.3111799994076136
11.692,2.3076027142233215
11.696,2.3118304148956668
11.7,2.310204376175534
11.704,2.3046758445270825
11.708,2.3040254290390294
11.712,2.2900414960458875
11.716,2.2832121334213298
11.72,2.2871146263496485
11.724,2.3007733515987638
11.728,2.3066270909912419
11.732,2.3059766755031887
11.736,2.3267899711208884
11.74,2.3414243196020834
11.744,2.3615871997317299
11.748,2.3745955094927922
11.752,2.3658149004040752
11.756,2.3690669778443407
11.76,2.3921567276702262
11.764,2.4145960620080587
11.768,2.4246775020728819
11.772,2.4129700232879259
11.776,2.3859777805337217
11.78,2.3745955094927922
11.784,2.3807744566292968
11.788,2.3973600515746512
11.792,2.3863029882777482
11.796,2.3645140694279689
11.8,2.3573594990593847
11.804,2.3719938475405797
11.808,2.3745955094927922
11.812,2.3755711327248719
11.816,2.3898802734620403
11.82,2.4009373367589433
11.824,2.3983356748067308
11.828,2.3846769495576154
11.832,2.3677661468682345
11.836,2.3898802734620403
11.84,2.4058154529193416
11.844,2.3928071431582794
11.848,2.3267899711208884
11.852,2.218495792360045
11.856,2.1479257119062822
11.86,2.1599583984352648
11.864,2.3401234886259772
11.868,2.7316736124339513
11.872,3.2959090483200271
11.876,3.9300641491718125
11.88,4.4894214688974898
11.884,4.6868225695216097
11.888,4.6946275553782471
11.892,4.6822696611052379
11.896,4.3772247972083278
11.9,3.5534735815890599
11.904,2.7941134992870502
11.908,2.2458132428582758
11.912,2.0419079873536248
11.916,2.0594692055310588
11.92,2.1232099233602639
11.924,2.166462553315796
11.928,2.2171949613839388
11.932,2.2623988378036302
11.936,2.3010985593427904
11.94,2.3069522987352684
11.944,2.2906919115339406
11.948,2.2822365101892501
11.952,2.3251639324007556
11.956,2.3450016047863755
11.96,2.3420747350901365
11.964,2.3583351222914644
11.968,2.3628880307078362
11.972,2.3580099145474378
11.976,2.3524813828989863
11.98,2.3371966189297382
11.984,2.3459772280184552
11.988,2.3827257030934561
11.992,2.3775223791890312
11.996,2.3736198862607125
12,2.3661401081481017
12.004,2.3680913546122611
12.008,2.3690669778443407
12.012,2.3983356748067308
12.016,2.422401047864696
12.02,2.4243522943288554
12.024,2.434108526649652
12.028,2.4555722377554048
12.032,2.4646780545881484
12.036,2.4744342869089451
12.04,2.5011013219191227
12.044,2.5248414872330613
12.048,2.5440287441306282
12.052,2.5905334515264258
12.056,2.6194769407447893
12.06,2.6360625356901437
12.064,2.6539489616116043
12.068,2.677689126925543
12.072,2.7102099013281986
12.076,2.7433810912189074
12.08,2.7778531120857224
12.084,2.8097234710003249
12.088,2.8406182066828478
12.092,2.8490736080275383
12.096,2.8474475693074055
12.1,2.8376913369866088
12.104,2.8565533861401491
12.108,2.8698869036452379
12.112,2.8627323332766537
12.116,2.8493988157715648
12.12,2.798666407703422
12.124,2.7199661336489953
12.128,2.6611035319801886
12.132,2.6093955006799661
12.136,2.5502076912671328
12.14,2.4991500754549634
12.144,2.4464664209226612
12.148,2.3895550657180138
12.152,2.3531317983870395
12.156,2.32191185496049
12.16,2.2923179502540734
12.164,2.2620736300596036
12.168,2.2532930209708866
12.172,2.2536182287149131
12.176,2.2347561795613728
12.18,2.2305284788890276
12.184,2.2308536866330542
12.188,2.2236991162644699
12.192,2.2093899755273014
12.196,2.2064631058310624
12.2,2.235406595049426
12.204,2.2484149048104882
12.208,2.224349531752523
12.212,2.2191462078480981
12.216,2.2285772324248683
12.22,2.2236991162644699
12.224,2.2292276479129214
12.228,2.2370326337695587
12.232,2.2445124118821695
12.236,2.2630492532916833
12.24,2.2731306933565065
12.244,2.275732355308719
12.248,2.2737811088445596
12.252,2.284512964397436
12.256,2.2858137953735422
12.26,2.2679273694520816
12.264,2.2607727990834974
12.268,2.2676021617080551
12.272,2.2760575630527455
12.276,2.2715046546363737
12.28,2.2604475913394708
12.284,2.2659761229879223
12.288,2.2838625489093829
12.292,2.2871146263496485
12.296,2.290366703789914
12.3,2.2952448199503124
12.304,2.3037002212950028
12.308,2.3020741825748701
12.312,2.3063018832472153
12.316,2.3167085310560651
12.32,2.32191185496049
12.324,2.3251639324007556
12.328,2.3186597775202245
12.332,2.3124808303837199
12.336,2.3251639324007556
12.34,2.3323185027693398
12.344,2.3316680872812867
12.348,2.3336193337454461
12.352,2.3401234886259772
12.356,2.3430503583222162
12.36,2.3371966189297382
12.364,2.3251639324007556
12.368,2.3245135169127025
12.372,2.3290664253290743
12.376,2.3238631014246494
12.38,2.3173589465441182
12.384,2.316058115568012
12.388,2.3186597775202245
12.392,2.3212614394724369
12.396,2.3212614394724369
12.4,2.327765594352968
12.404,2.3352453724655788
12.408,2.3342697492334992
12.412,2.3245135169127025
12.416,2.3128060381277464
12.42,2.3082531297113746
12.424,2.3063018832472153
12.428,2.2981716896465514
12.432,2.2971960664144717
12.436,2.3033750135509763
12.44,2.3050010522711091
12.444,2.2981716896465514
12.448,2.3046758445270825
12.452,2.3267899711208884
12.456,2.3391478653938975
12.46,2.3371966189297382
12.464,2.3319932950253133
12.468,2.3430503583222162
12.472,2.3710182243085001
12.476,2.385002157301642
12.48,2.3898802734620403
12.484,2.3902054812060669
12.488,2.385002157301642
12.492,2.3716686397965532
12.496,2.3641888616839424
12.5,2.3635384461958893
12.504,2.3723190552846063
12.508,2.3739450940047391
12.512,2.365164484916022
12.516,2.3580099145474378
12.52,2.3606115764996503
12.524,2.3606115764996503
12.528,2.3518309674109332
12.532,2.3492293054587208
12.536,2.3511805519228801
12.54,2.3479284744826145
12.544,2.3397982808819506
12.548,2.3456520202744287
12.552,2.3628880307078362
12.556,2.3632132384518627
12.56,2.3046758445270825
12.564,2.1999589509505313
12.568,2.100445381278405
12.572,2.0828841631009709
12.576,2.2406099189538509
12.58,2.6298835885536391
12.584,3.2110298271290958
12.588,3.9144541774585377
12.592,4.5599915493512526
12.596,4.6939771398901939
12.6,4.7008065025147516
12.604,4.6978796328185126
12.608,4.6286103833408561
12.612,3.9339666421001311
12.616,3.108914595504757
12.62,2.4227262556087226
12.624,2.0958924728620332
12.628,2.0474365190020762
12.632,2.0828841631009709
12.636,2.1274376240326092
12.64,2.1771944088686723
12.644,2.2090647677832749
12.648,2.2233739085204434
12.652,2.2357318027934525
12.656,2.241260334441904
12.66,2.2432115809060633
12.664,2.2451628273702227
12.668,2.258821552619338
12.672,2.2715046546363737
12.676,2.2715046546363737
12.68,2.2711794468923472
12.684,2.2737811088445596
12.688,2.2861390031175688
12.692,2.2952448199503124
12.696,2.2978464819025248
12.7,2.2994725206226576
12.704,2.301423767086817
12.708,2.3020741825748701
12.712,2.3037002212950028
12.716,2.3170337388000917
12.72,2.3381722421618178
12.724,2.3554082525952253
12.728,2.3602863687556237
12.732,2.3700426010764204
12.736,2.3843517418135889
12.74,2.3970348438306246
12.744,2.4022381677350495
12.748,2.4116691923118196
12.752,2.4289052027452271
12.756,2.4454907976905815
12.76,2.453946199035272
12.764,2.4630520158680156
12.768,2.4835401037416887
12.772,2.5043533993593883
12.776,2.5215894097927958
12.78,2.5404514589463361
12.784,2.5625655855401419
12.788,2.5954115676868241
12.792,2.6168752787925769
12.796,2.6347617047140375
12.8,2.6536237538675778
12.804,2.672485803021118
12.808,2.6867949437582865
12.812,2.6910226444306318
12.816,2.695250345102977
12.82,2.7030553309596144
12.824,2.701104084495455
12.828,2.680615996621782
12.832,2.6562254158197902
12.836,2.6295583808096126
12.84,2.5879317895742133
12.844,2.5349229272978846
12.848,2.4815888572775293
12.852,2.434108526649652
12.856,2.3895550657180138
12.86,2.3485788899706677
12.864,2.3209362317284103
12.868,2.2988221051346045
12.872,2.2773583940288518
12.876,2.2542686442029662
12.88,2.2350813873053994
12.884,2.2308536866330542
12.888,2.227276401448762
12.892,2.2181705846160185
12.896,2.2103655987593811
12.9,2.2077639368071686
12.904,2.2116664297354873
12.908,2.2139428839436732
12.912,2.2119916374795139
12.916,2.2136176761996467
12.92,2.2282520246808417
12.924,2.2302032711450011
12.928,2.2227234930323903
12.932,2.2223982852883637
12.936,2.224349531752523
12.94,2.2285772324248683
12.944,2.2344309718173463
12.948,2.2422359576739836
12.952,2.2542686442029662
12.956,2.2666265384759754
12.96,2.2702038236602675
12.964,2.2708542391483206
12.968,2.2796348482370377
12.972,2.2893910805578344
12.976,2.2942691967182327
12.98,2.2945944044622593
12.984,2.2997977283666842
12.988,2.3010985593427904
12.992,2.2942691967182327
12.996,2.2848381721414626
13,2.2861390031175688
13.004,2.2828869256773032
13.008,2.2867894186056219
13.012,2.2965456509264186
13.016,2.3144320768478792
13.02,2.3310176717932336
13.024,2.3375218266737647
13.028,2.335895787953632
13.032,2.3407739041140303
13.036,2.3453268125304021
13.04,2.3466276435065083
13.044,2.3404486963700037
13.048,2.3371966189297382
13.052,2.3368714111857116
13.056,2.3420747350901365
13.06,2.3394730731379241
13.064,2.3371966189297382
13.068,2.34174952734611
13.072,2.3414243196020834
13.076,2.3323185027693398
13.08,2.3254891401447821
13.084,2.330692464049207
13.088,2.3375218266737647
13.092,2.3349201647215523
13.096,2.3303672563051805
13.1,2.3274403866089415
13.104,2.3329689182573929
13.108,2.3345949569775257
13.112,2.3326437105133664
13.116,2.3352453724655788
13.12,2.3378470344177913
13.124,2.3401234886259772
13.128,2.3349201647215523
13.132,2.3368714111857116
13.136,2.3433755660662428
13.14,2.3482536822266411
13.144,2.3453268125304021
13.148,2.338822657649871
13.152,2.3410991118580569
13.156,2.3433755660662428
13.16,2.3368714111857116
13.164,2.3264647633768618
13.168,2.3245135169127025
13.172,2.3310176717932336
13.176,2.3264647633768618
13.18,2.3206110239843838
13.184,2.3238631014246494
13.188,2.3274403866089415
13.192,2.3274403866089415
13.196,2.3267899711208884
13.2,2.3375218266737647
13.204,2.3537822138750926
13.208,2.3615871997317299
13.212,2.3580099145474378
13.216,2.3589855377795175
13.22,2.3837013263255358
13.224,2.4080919071275275
13.228,2.419474178168457
13.232,2.4243522943288554
13.236,2.4227262556087226
13.24,2.4139456465200055
13.244,2.3993112980388105
13.248,2.39085589669412
13.252,2.3944331818784121
13.256,2.3947583896224387
13.26,2.3915063121821731
13.264,2.3934575586463325
13.268,2.3993112980388105
13.272,2.4058154529193416
13.276,2.4045146219432354
13.28,2.3986608825507574
13.284,2.4009373367589433
13.288,2.41069356907974
13.292,2.4123196077998728
13.296,2.4074414916394744
13.3,2.41069356907974
13.304,2.4090675303596072
13.308,2.3602863687556237
13.312,2.2591467603633646
13.316,2.1615844371553976
13.32,2.1355678176332731
13.324,2.2568703061551787
13.328,2.5817528424377088
13.332,3.1271262291702442
13.336,3.8227455936430488
13.34,4.4962508315220475
13.344,4.6939771398901939
13.348,4.7024325412348844
13.352,4.7024325412348844
13.356,4.6855217385455035
13.36,4.3242159349319991
13.364,3.5131478213297669
13.368,2.7394785982905887
13.372,2.2783340172609314
13.376,2.1277628317766357
13.38,2.1115024445753079
13.384,2.1537794512987603
13.388,2.209715183271328
13.392,2.2406099189538509
13.396,2.2516669822507538
13.4,2.2581711371312849
13.404,2.2594719681073911
13.408,2.2607727990834974
13.412,2.2597971758514177
13.416,2.266951746220002
13.42,2.2796348482370377
13.424,2.2926431579980999
13.428,2.290366703789914
13.432,2.2887406650697812
13.436,2.2913423270219937
13.44,2.2942691967182327
13.444,2.293293573486153
13.448,2.2955700276943389
13.452,2.3027245980629232
13.456,2.310204376175534
13.46,2.301423767086817
13.464,2.2988221051346045
13.468,2.3089035451994278
13.472,2.3173589465441182
13.476,2.3232126859365962
13.48,2.3267899711208884
13.484,2.335895787953632
13.488,2.3489040977146942
13.492,2.359310745523544
13.496,2.3645140694279689
13.5,2.3713434320525266
13.504,2.3885794424859341
13.508,2.4054902451753151
13.512,2.4243522943288554
13.516,2.4474420441547409
13.52,2.4724830404447857
13.524,2.4906946741102729
13.528,2.5076054767996538
13.532,2.5284187724173535
13.536,2.557362261635717
13.54,2.5840292966458946
13.544,2.5986636451270897
13.548,2.6100459161680192
13.552,2.626306303369347
13.556,2.6373633666662499
13.56,2.6415910673385952
13.564,2.6471195989870466
13.568,2.6523229228914715
13.572,2.6529733383795246
13.576,2.6370381589222234
13.58,2.611671954888152
13.584,2.5837040889018681
13.588,2.548581652547
13.592,2.5066298535675742
13.596,2.4594747306837235
13.6,2.4181733471923508
13.604,2.3824004953494295
13.608,2.347603266738588
13.612,2.3105295839195605
13.616,2.2854885876295157
13.62,2.2731306933565065
13.624,2.2565450984111521
13.628,2.2370326337695587
13.632,2.2223982852883637
13.636,2.2197966233361512
13.64,2.2181705846160185
13.644,2.2103655987593811
13.648,2.2061378980870359
13.652,2.209715183271328
13.656,2.2103655987593811
13.66,2.2035362361348234
13.664,2.2015849896706641
13.668,2.2080891445511952
13.672,2.215568922663806
13.676,2.2171949613839388
13.68,2.215568922663806
13.684,2.2204470388242044
13.688,2.2276016091927886
13.692,2.2295528556569479
13.696,2.2315041021211073
13.7,2.2422359576739836
13.704,2.255894682923099
13.708,2.2601223835954443
13.712,2.2597971758514177
13.716,2.2663013307319488
13.72,2.2828869256773032
13.724,2.2900414960458875
13.728,2.290366703789914
13.732,2.2926431579980999
13.736,2.2968708586704452
13.74,2.2978464819025248
13.744,2.2968708586704452
13.748,2.2939439889742061
13.752,2.3004481438547373
13.756,2.3069522987352684
13.76,2.3053262600151356
13.764,2.3050010522711091
13.768,2.3095539606874809
13.772,2.3167085310560651
13.776,2.3141068691038527
13.78,2.3063018832472153
13.784,2.3076027142233215
13.788,2.3196354007523041
13.792,2.3254891401447821
13.796,2.3212614394724369
13.8,2.3202858162403572
13.804,2.32191185496049
13.808,2.32191185496049
13.812,2.3186597775202245
13.816,2.3261395556328353
13.82,2.3371966189297382
13.824,2.3433755660662428
13.828,2.3450016047863755
13.832,2.3502049286908004
13.836,2.3586603300354909
13.84,2.365164484916022
13.844,2.3615871997317299
13.848,2.362237615219783
13.852,2.3690669778443407
13.856,2.3745955094927922
13.86,2.376221548212925
13.864,2.3723190552846063
13.868,2.3729694707726594
13.872,2.3752459249808453
13.876,2.3716686397965532
13.88,2.365164484916022
13.884,2.370367808820447
13.888,2.3807744566292968
13.892,2.3846769495576154
13.896,2.3840265340695623
13.9,2.3859777805337217
13.904,2.3827257030934561
13.908,2.3719938475405797
13.912,2.362237615219783
13.916,2.3648392771719955
13.92,2.3788232101651374
13.924,2.3934575586463325
13.928,2.3950835973664653
13.932,2.3950835973664653
13.936,2.4022381677350495
13.94,2.4220758401206695
13.944,2.4360597731138114
13.948,2.4380110195779707
13.952,2.4402874737861566
13.956,2.4448403822025284
13.96,2.4604503539158031
13.964,2.4799628185573965
13.968,2.4955727902706712
13.972,2.4984996599669103
13.976,2.4906946741102729
13.98,2.4780115720932372
13.984,2.4757351178850513
13.988,2.4741090791649185
13.992,2.4672797165403608
13.996,2.4617511848919094
14,2.4624016003799625
14.004,2.4672797165403608
14.008,2.4711822094686795
14.012,2.4705317939806264
14.016,2.4708570017246529
14.02,2.4731334559328388
14.024,2.4724830404447857
14.028,2.4659788855642546
14.032,2.4666293010523077
14.036,2.4708570017246529
14.04,2.4770359488611575
14.044,2.4620763926359359
14.048,2.399636505782837
14.052,2.3004481438547373
14.056,2.2110160142474342
14.06,2.1895523031416815
14.064,2.3290664253290743
14.068,2.6734614262531977
14.072,3.2220868904259987
14.076,3.8848602727521211
14.08,4.4982020779862069
14.084,4.6913754779379815
14.088,4.6982048405625392
14.092,4.6956031786103267
14.096,4.6107239574193954
14.1,3.9469749518611934
14.104,3.1736309365660418
14.108,2.5115079697279725
14.112,2.1784952398447786
14.116,2.1079251593910158
14.12,2.1245107543363702
14.124,2.1687390075239819
14.128,2.2077639368071686
14.132,2.2318293098651338
14.136,2.2396342957217712
14.14,2.2422359576739836
14.144,2.2393090879777446
14.148,2.2402847112098243
14.152,2.2493905280425679
14.156,2.2607727990834974
14.16,2.2666265384759754
14.164,2.2666265384759754
14.168,2.2734559011005331
14.172,2.2780088095169049
14.176,2.2718298623804003
14.18,2.2653257074998692
14.184,2.2666265384759754
14.188,2.2737811088445596
14.192,2.2750819398206659
14.196,2.2737811088445596
14.2,2.278659225004958
14.204,2.2916675347660203
14.208,2.2949196122062858
14.212,2.2968708586704452
14.216,2.3134564536157995
14.22,2.3316680872812867
14.224,2.3479284744826145
14.228,2.3557334603392519
14.232,2.3667905236361548
14.236,2.3810996643733233
14.24,2.3941079741343856
14.244,2.4006121290149167
14.248,2.4110187768237665
14.252,2.4331329034175724
14.256,2.4594747306837235
14.26,2.4773611566051841
14.264,2.4984996599669103
14.268,2.5248414872330613
14.272,2.5518337299872655
14.276,2.5736226488370448
14.28,2.5908586592704523
14.284,2.6126475781202316
14.288,2.6393146131304093
14.292,2.6532985461235512
14.296,2.6646808171644807
14.3,2.683542866318021
14.304,2.6945999296149239
14.308,2.6939495141268708
14.312,2.6861445282702334
14.316,2.6786647501576226
14.32,2.6659816481405869
14.324,2.6386641976423562
14.328,2.5954115676868241
14.332,2.551508522243239
14.336,2.5092315155197866
14.34,2.4653284700762015
14.344,2.4207750091445632
14.348,2.3817500798613764
14.352,2.3531317983870395
14.356,2.3326437105133664
14.36,2.307277506479295
14.364,2.2851633798854891
14.368,2.2773583940288518
14.372,2.269878615916241
14.376,2.2571955138992053
14.38,2.2432115809060633
14.384,2.2419107499299571
14.388,2.2445124118821695
14.392,2.2399595034657978
14.396,2.2347561795613728
14.4,2.2337805563292932
14.404,2.2406099189538509
14.408,2.2399595034657978
14.412,2.2347561795613728
14.416,2.2347561795613728
14.42,2.2380082570016384
14.424,2.2399595034657978
14.428,2.2389838802337181
14.432,2.2432115809060633
14.436,2.2526426054828335
14.44,2.2581711371312849
14.444,2.2581711371312849
14.448,2.2578459293872584
14.452,2.2646752920118161
14.456,2.27280548561248
14.46,2.2773583940288518
14.464,2.2825617179332767
14.468,2.290366703789914
14.472,2.2968708586704452
14.476,2.2890658728138078
14.48,2.2793096404930111
14.484,2.2744315243326128
14.488,2.2754071475646924
14.492,2.2734559011005331
14.496,2.2724802778684534
14.5,2.2825617179332767
14.504,2.2890658728138078
14.508,2.2884154573257547
14.512,2.287439834093675
14.516,2.2880902495817281
14.52,2.2936187812301796
14.524,2.2991473128786311
14.528,2.2975212741584983
14.532,2.293293573486153
14.536,2.2952448199503124
14.54,2.3020741825748701
14.544,2.3040254290390294
14.548,2.3095539606874809
14.552,2.3183345697761979
14.556,2.3254891401447821
14.56,2.3206110239843838
14.564,2.3199606084963307
14.568,2.3251639324007556
14.572,2.3323185027693398
14.576,2.3303672563051805
14.58,2.3290664253290743
14.584,2.3323185027693398
14.588,2.3342697492334992
14.592,2.3378470344177913
14.596,2.3326437105133664
14.6,2.335895787953632
14.604,2.344676397042349
14.608,2.3492293054587208
14.612,2.3440259815542959
14.616,2.3430503583222162
14.62,2.3466276435065083
14.624,2.3492293054587208
14.628,2.3469528512505349
14.632,2.3498797209467739
14.636,2.3589855377795175
14.64,2.3648392771719955
14.644,2.3645140694279689
14.648,2.359310745523544
14.652,2.3654896926600486
14.656,2.370367808820447
14.66,2.3664653158921283
14.664,2.3609367842436768
14.668,2.3641888616839424
14.672,2.3726442630286328
14.676,2.373294678516686
14.68,2.3745955094927922
14.684,2.3794736256531905
14.688,2.3856525727896951
14.692,2.385002157301642
14.696,2.3898802734620403
14.7,2.4035389987111557
14.704,2.4162221007281914
14.708,2.419474178168457
14.712,2.4217506323766429
14.716,2.4396370582981035
14.72,2.462726808123989
14.724,2.4728082481888123
14.728,2.4643528468441218
14.732,2.4497184983629268
14.736,2.4412630970182363
14.74,2.4337833189056255
14.744,2.4227262556087226
14.748,2.419474178168457
14.752,2.4227262556087226
14.756,2.4243522943288554
14.76,2.4214254246326163
14.764,2.4214254246326163
14.768,2.4305312414653599
14.772,2.4409378892742097
14.776,2.4402874737861566
14.78,2.4383362273219973
14.784,2.4412630970182363
14.788,2.4487428751308471
14.792,2.4448403822025284
14.796,2.4461412131786346
14.8,2.4396370582981035
14.804,2.3986608825507574
14.808,2.307277506479295
14.812,2.2178453768719919
14.816,2.2022354051587172
14.82,2.3384974499058444
14.824,2.6572010390518699
14.828,3.1544436796684749
14.832,3.7765660939912777
14.836,4.3635660719592124
14.84,4.6786923759209458
14.844,4.691700685682008
14.848,4.682920076593291
14.852,4.4712098352320027
14.856,3.7450209428207017
14.86,3.0097262335766573
14.864,2.4220758401206695
14.868,2.1654869300837163
14.872,2.1462996731861494
14.876,2.1758935778925661
14.88,2.2132924684556201
14.884,2.2633744610357098
14.888,2.2997977283666842
14.892,2.3147572845919058
14.896,2.3128060381277464
14.9,2.3134564536157995
14.904,2.3196354007523041
14.908,2.3235378936806228
14.912,2.3267899711208884
14.916,2.338822657649871
14.92,2.3537822138750926
14.924,2.3567090835713316
14.928,2.3541074216191191
14.932,2.3524813828989863
14.936,2.3515057596669067
14.94,2.3511805519228801
14.944,2.3482536822266411
14.948,2.3469528512505349
14.952,2.3498797209467739
14.956,2.3544326293631457
14.96,2.3544326293631457
14.964,2.3544326293631457
14.968,2.3654896926600486
14.972,2.3843517418135889
14.976,2.3993112980388105
14.98,2.4035389987111557
14.984,2.4139456465200055
14.988,2.4269539562810678
14.992,2.4367101886018645
14.996,2.4458160054346081
15,2.4663040933082812
15.004,2.4936215438065119
15.008,2.5144348394242115
15.012,2.52874398016138
15.016,2.5424027054104954
15.02,2.5651672474923544
15.024,2.5905334515264258
15.028,2.6093955006799661
15.032,2.6334608737379313
15.036,2.6640304016764276
15.04,2.6880957747343928
15.044,2.7076082393759862
15.048,2.723868626577314
15.052,2.7420802602428012
15.056,2.7560641932359431
15.06,2.7544381545158103
15.064,2.749560038355412
15.068,2.7446819221950136
15.072,2.7352508976182435
15.076,2.7085838626080658
15.08,2.6708597643009853
15.084,2.6347617047140375
15.088,2.594761152198771
15.092,2.5453295751067344
15.096,2.4955727902706712
15.1,2.456873068731511
15.104,2.4266287485370412
15.108,2.3915063121821731
15.112,2.3580099145474378
15.116,2.3329689182573929
15.12,2.3222370627045166
15.124,2.3121556226396933
15.128,2.3004481438547373
15.132,2.2929683657421265
15.136,2.2871146263496485
15.14,2.2796348482370377
15.144,2.2685777849401347
15.148,2.2646752920118161
15.152,2.2702038236602675
15.156,2.2737811088445596
15.16,2.2692282004281878
15.164,2.2692282004281878
15.168,2.2702038236602675
15.172,2.2737811088445596
15.176,2.2731306933565065
15.18,2.2702038236602675
15.184,2.2695534081722144
15.188,2.2763827707967721
15.192,2.2796348482370377
15.196,2.284512964397436
15.2,2.2880902495817281
15.204,2.2929683657421265
15.208,2.2952448199503124
15.212,2.293293573486153
15.216,2.2988221051346045
15.22,2.3134564536157995
15.224,2.3228874781925697
15.228,2.3235378936806228
15.232,2.3241883091686759
15.236,2.3280908020969946
15.24,2.3316680872812867
15.244,2.3254891401447821
15.248,2.3267899711208884
15.252,2.3316680872812867
15.256,2.3365462034416851
15.26,2.3326437105133664
15.264,2.3316680872812867
15.268,2.3349201647215523
15.272,2.3378470344177913
15.276,2.3375218266737647
15.28,2.3336193337454461
15.284,2.3365462034416851
15.288,2.3420747350901365
15.292,2.3456520202744287
15.296,2.3440259815542959
15.3,2.344676397042349
15.304,2.3498797209467739
15.308,2.3502049286908004
15.312,2.3502049286908004
15.316,2.3573594990593847
15.32,2.3638636539399158
15.324,2.3625628229638096
15.328,2.3580099145474378
15.332,2.3573594990593847
15.336,2.3635384461958893
15.34,2.3710182243085001
15.344,2.3667905236361548
15.348,2.3638636539399158
15.352,2.3648392771719955
15.356,2.3684165623562876
15.36,2.3658149004040752
15.364,2.3635384461958893
15.368,2.3674409391242079
15.372,2.3713434320525266
15.376,2.3667905236361548
15.38,2.3599611610115971
15.384,2.3609367842436768
15.388,2.3654896926600486
15.392,2.3697173933323938
15.396,2.3606115764996503
15.4,2.3537822138750926
15.404,2.3502049286908004
15.408,2.3440259815542959
15.412,2.3394730731379241
15.416,2.3394730731379241
15.42,2.3440259815542959
15.424,2.3518309674109332
15.428,2.3580099145474378
15.432,2.3680913546122611
15.436,2.3752459249808453
15.44,2.3771971714450046
15.444,2.3729694707726594
15.448,2.3837013263255358
15.452,2.404839829687262
15.456,2.4191489704244304
15.46,2.4207750091445632
15.464,2.416547308472218
15.468,2.4142708542640321
15.472,2.4061406606633682
15.476,2.3931323509023059
15.48,2.3872786115098279
15.484,2.3882542347419076
15.488,2.3924819354142528
15.492,2.3918315199261997
15.496,2.3931323509023059
15.5,2.393782766390359
15.504,2.3999617135268636
15.508,2.4041894141992088
15.512,2.4022381677350495
15.516,2.4022381677350495
15.52,2.41069356907974
15.524,2.4158968929841649
15.528,2.4155716852401383
15.532,2.4090675303596072
15.536,2.3749207172368187
15.54,2.2858137953735422
15.544,2.1846741869812831
15.548,2.1476005041622557
15.552,2.2363822182815056
15.556,2.5056542303354945
15.56,2.9456603080034256
15.564,3.5375384021317586
15.568,4.15413228480611
15.572,4.6364153691974934
15.576,4.6897494392178487
15.58,4.6868225695216097
15.584,4.5788535985047929
15.588,3.9264868639875203
15.592,3.1599722113169264
15.596,2.5173617091204505
15.6,2.1619096448994242
15.604,2.097518511582166
15.608,2.1202830536640249
15.612,2.152478620322654
15.616,2.2006093664385844
15.62,2.2435367886500899
15.624,2.2650004997558426
15.628,2.2682525771961082
15.632,2.27280548561248
15.636,2.2806104714691173
15.64,2.2910171192779671
15.644,2.3020741825748701
15.648,2.318984985264251
15.652,2.338822657649871
15.656,2.3524813828989863
15.66,2.3502049286908004
15.664,2.3423999428341631
15.668,2.3303672563051805
15.672,2.310204376175534
15.676,2.2851633798854891
15.68,2.2653257074998692
15.684,2.2565450984111521
15.688,2.2555694751790725
15.692,2.2467888660903554
15.696,2.2344309718173463
15.7,2.2295528556569479
15.704,2.2318293098651338
15.708,2.2350813873053994
15.712,2.2311788943770807
15.716,2.2302032711450011
15.72,2.2402847112098243
15.724,2.2549190596910194
15.728,2.2623988378036302
15.732,2.2708542391483206
15.736,2.2854885876295157
15.74,2.3007733515987638
15.744,2.2994725206226576
15.748,2.2854885876295157
15.752,2.2750819398206659
15.756,2.2656509152438957
15.76,2.2549190596910194
15.764,2.2536182287149131
15.768,2.2571955138992053
15.772,2.2705290314042941
15.776,2.2776836017728783
15.78,2.2822365101892501
15.784,2.2949196122062858
15.788,2.3147572845919058
15.792,2.2949196122062858
15.796,2.2263007782166824
15.8,2.1476005041622557
15.804,2.0877622792613693
15.808,2.0279240543604828
15.812,1.9671102062275168
15.816,1.9085728123027366
15.82,1.8581656119786203
15.824,1.8054819574463181
15.828,1.7547495493781753
15.832,1.7118221271666698
15.836,1.6796265605080407
15.84,1.6542603564739693
15.844,1.6308453989040572
15.848,1.6123085574945435
15.852,1.6093816877983045
15.856,1.6113329342624638
15.86,1.6019019096856937
15.864,1.5947473393171094
15.868,1.589218807668658
15.872,1.5879179766925517
15.876,1.5700315507710911
15.88,1.5284049595356919
15.884,1.4744204740272835
15.888,1.4188099497987423
15.892,1.365475879778387
15.896,1.3160443026863504
15.9,1.2802714508434292
15.904,1.2578321165055968
15.908,1.2405961060721893
15.912,1.2165307330142241
15.916,1.201896384533029
15.92,1.2119778245978523
15.924,1.2272625885671005
15.928,1.2087257471575867
15.932,1.1553916771372315
15.936,1.0893745050998405
15.94,1.017828801413998
15.944,0.94823434419231489
15.948,0.89977839033235796
15.952,0.88026592569076456
15.956,0.87961551020271145
15.96,0.87766426373855211
15.964,0.87408697855425999
15.968,0.87766426373855211
15.972,0.8747373940423131
15.976,0.86433074623346329
15.98,0.85229805970448069
15.984,0.85782659135293216
15.988,0.87441218629828654
15.992,0.88579445733921602
15.996,0.89099778124364093
16,0.90465650649275631
16.004,0.92742104857461527
16.008,0.93912852735957131
16.012,0.94270581254386343
16.016,0.95376287584076636
16.02,0.96677118560182862
16.024,0.97685262566665187
16.028,0.96904763981001452
16.032,0.95734016102505848
16.036,0.9362016576633323
16.04,0.9069329607009422
16.044,0.86855844690580852
16.048,0.83376121829496697
16.052,0.80449252133257687
16.056,0.78205318699474446
16.06,0.75441052875248715
16.064,0.74660554289584979
16.068,0.74010138801531866
16.072,0.73489806411089376
16.076,0.72774349374230951
16.08,0.72611745502217673
16.084,0.7345728563668672
16.088,0.75018282808014192
16.092,0.75506094424054027
16.096,0.76416676107328385
16.1,0.776524655346293
16.104,0.79506149675580673
16.108,0.81294792267726734
16.112,0.82725706341443583
16.116,0.84156620415160432
16.12,0.85945263007306494
16.124,0.88384321087505668
16.128,0.90433129874872975
16.132,0.93002271052682772
16.136,0.95538891456089914
16.14,0.98368198829120956
16.144,1.0181540091580246
16.148,1.0444958364241756
16.152,1.0783174418029375
16.156,1.1264481879188679
16.16,1.1706764411064796
16.164,1.2116526168538257
16.168,1.250352338392986
16.172,1.3030359929252882
16.176,1.3557196474575903
16.18,1.3983218619250692
16.184,1.4223872349830344
16.188,1.4432005306007341
16.192,1.4584852945699822
16.196,1.4662902804266196
16.2,1.485802745068213
16.204,1.5066160406859126
16.208,1.5147462342865765
16.212,1.5001118858053815
16.216,1.4792985901876818
16.22,1.4627129952423275
16.224,1.4516559319454245
16.228,1.44547698480892
16.232,1.4516559319454245
16.236,1.4610869565221947
16.24,1.4614121642662212
16.244,1.451330724201398
16.248,1.4487290622491855
16.252,1.4555584248737432
16.256,1.4405988686485216
16.26,1.3739312811230775
16.264,1.2581573242496233
16.268,1.1592941700655501
16.272,1.1736033108027186
16.276,1.3560448552016169
16.28,1.727106891135918
16.284,2.2721550701244269
16.288,2.9124891181127168
16.292,3.4754237230226863
16.296,3.8536403293255717
16.3,4.0116912929224782
16.304,3.8120137380901724
16.308,3.1658259507094044
16.312,2.3680913546122611
16.316,1.7436924860812724
16.32,1.2835235282836948
16.324,1.0890492973558139
16.328,1.0789678572909907
16.332,1.1238465259666555
16.336,1.1781562192190904
16.34,1.2353927821677644
16.344,1.2714908417547122
16.348,1.2890520599321462
16.352,1.296531838044757
16.356,1.3140930562221911
16.36,1.3287274047033861
16.364,1.3352315595839173
16.368,1.3472642461128999
16.372,1.3576708939217497
16.376,1.3645002565463074
16.38,1.3618985945940949
16.384,1.3677523339865729
16.388,1.3833623056998476
16.392,1.3914924993005116
16.396,1.4009235238772817
16.4,1.4084033019898925
16.404,1.4194603652867954
16.408,1.4331190905359108
16.412,1.4357207524881233
16.416,1.4458021925529465
16.42,1.4594609178020619
16.424,1.4737700585392304
16.428,1.4965346006210893
16.432,1.5189739349589217
16.436,1.5410880615527276
16.44,1.5654786423547193
16.444,1.5856415224843659
16.448,1.6071052335901186
16.452,1.6334470608562697
16.456,1.6649922120268457
16.46,1.6841794689244125
16.464,1.7017406871018466
16.468,1.7254808524157852
16.472,1.7534487184020691
16.476,1.7726359752996359
16.48,1.7853190773166716
16.484,1.8061323729343712
16.488,1.8386531473370269
16.492,1.8757268301560543
16.496,1.9046703193744179
16.5,1.9261340304801706
16.504,1.9440204564016312
16.508,1.9612564668350387
16.512,1.9762160230602603
16.516,1.9797933082445525
16.52,1.9882487095892429
16.524,1.9901999560534023
16.528,1.9804437237326056
16.532,1.9589800126268528
16.536,1.9319877698726486
16.54,1.9007678264460992
16.544,1.8555639500264078
16.548,1.8103600736067165
16.552,1.7778392992040608
16.556,1.7622293274907861
16.56,1.744668109313352
16.564,1.7206027362553868
16.568,1.7134481658868026
16.572,1.7046675567980856
16.576,1.6994642328936607
16.58,1.6968625709414482
16.584,1.6923096625250764
16.588,1.7001146483817138
16.592,1.7059683877741918
16.596,1.6997894406376872
16.6,1.7033667258219793
16.604,1.7186514897912275
16.608,1.7267816833918914
16.612,1.7235296059516259
16.616,1.7345866692485288
16.62,1.7466193557775114
16.624,1.7573512113303877
16.628,1.7687334823713172
16.632,1.7833678308525123
16.636,1.8012542567739729
16.64,1.8129617355589289
16.644,1.8184902672073804
16.648,1.8327994079445489
16.652,1.8669462210673373
16.656,1.8884099321730901
16.66,1.8926376328454353
16.664,1.8988165799819399
16.668,1.9147517594392411
16.672,1.931012146640569
16.676,1.9388171324972063
16.68,1.9365406782890204
16.684,1.9430448331695516
16.688,1.9638581287872512
16.692,1.9820697624527384
16.696,1.9866226708691102
16.7,1.994102448981721
16.704,2.0045090967905708
16.708,2.020444276247872
16.712,2.0357290402171202
16.716,2.0324769627768546
16.72,2.0435340260737576
16.724,2.0640221139474306
16.728,2.0874370715173427
16.732,2.1001201735343784
16.736,2.1196326381759718
16.74,2.1261367930565029
16.744,2.1251611698244233
16.748,2.13491740214522
16.752,2.1489013351383619
16.756,2.166462553315796
16.76,2.1775196166126989
16.764,2.1993085354624782
16.768,2.2171949613839388
16.772,2.2334553485852666
16.776,2.250040943530621
16.78,2.2610980068275239
16.784,2.2893910805578344
16.788,2.3059766755031887
16.792,2.3186597775202245
16.796,2.318984985264251
16.8,2.3352453724655788
16.804,2.3580099145474378
16.808,2.3710182243085001
16.812,2.3599611610115971
16.816,2.3638636539399158
16.82,2.3830509108374827
16.824,2.4019129599910229
16.828,2.4090675303596072
16.832,2.4363849808578379
16.836,2.4806132340454496
16.84,2.5115079697279725
16.844,2.5180121246085037
16.848,2.5089063077757601
16.852,2.5300448111374862
16.856,2.5726470256049652
16.86,2.6370381589222234
16.864,2.729722365969792
16.868,2.827284689177759
16.872,2.9046841322560795
16.876,2.9573677867883816
16.88,3.0097262335766573
16.884,3.0985079476959072
16.888,3.232168330490822
16.892,3.3606253893813118
16.896,3.4783505927189253
16.9,3.5895716411760077
16.904,3.7053455980494618
16.908,3.8149406077864114
16.912,3.9170558394107502
16.916,4.0025854760897346
16.92,4.0972209296014626
16.924,4.1700674642634112
16.928,4.2266536117240321
16.932,4.2783616430242546
16.936,4.3466552692698315
16.94,4.3847045753209386
16.944,4.3606392022629734
16.948,4.2939716147375293
16.952,4.2568979319185019
16.956,4.335272998228902
16.96,4.5908862850337755
16.964,4.6965788018424064
16.968,4.711538358067628
16.972,4.7167416819720529
16.976,4.720318967156345
16.98,4.7199937594123185
16.984,4.7206441749003716
16.988,4.7219450058764778
16.992,4.7222702136205044
16.996,4.720318967156345
17,4.7196685516682919
17.004,4.7177173052041326
17.008,4.7167416819720529
17.012,4.7138148122758139
17.016,4.7125139812997077
17.02,4.7105627348355483
17.024,4.7066602419072296
17.028,4.7063350341632031
17.032,4.7050342031870969
17.036,4.702757748978911
17.04,4.7021073334908579
17.044,4.7014569180028047
17.048,4.7017821257468313
17.052,4.7004812947707251
17.056,4.7001560870266985
17.06,4.7001560870266985
17.064,4.699830879282672
17.068,4.6995056715386454
17.072,4.6991804637946188
17.076,4.6995056715386454
17.08,4.7008065025147516
17.084,4.6995056715386454
17.088,4.699830879282672
17.092,4.699830879282672
17.096,4.6982048405625392
17.1,4.6991804637946188
17.104,4.699830879282672
17.108,4.6995056715386454
17.112,4.6985300483065657
17.116,4.6991804637946188
17.12,4.7008065025147516
17.124,4.7004812947707251
17.128,4.699830879282672
17.132,4.7001560870266985
17.136,4.7008065025147516
17.14,4.7014569180028047
17.144,4.7017821257468313
17.148,4.702757748978911
17.152,4.7021073334908579
17.156,4.7030829567229375
17.16,4.7037333722109906
17.164,4.7053594109311234
17.168,4.7066602419072296
17.172,4.7060098264191765
17.176,4.7063350341632031
17.18,4.7069854496512562
17.184,4.7069854496512562
17.188,4.7060098264191765
17.192,4.7069854496512562
17.196,4.7079610728833359
17.2,4.7060098264191765
17.204,4.7073106573952828
17.208,4.7047089954430703
17.212,4.7037333722109906
17.216,4.7017821257468313
17.22,4.7008065025147516
17.224,4.6969040095864329
17.228,4.6926763089140877
17.232,4.6825948688492645
17.236,4.6617815732315648
17.24,4.6009677250985987
17.244,4.501779363170499
17.248,4.395436430873815
17.252,4.3102320019388571
17.256,4.2611256325908471
17.26,4.2178730026353151
17.264,4.1632381016388535
17.268,4.1232375491235871
17.272,4.1004730070417281
17.276,4.077058049471816
17.28,4.0494153912295587
17.284,4.0142929548746906
17.288,4.0087644232262392
17.292,4.0048619302979205
17.296,3.9768940643116366
17.3,3.9544547299738042
17.304,3.94730015960522
17.308,3.9388447582605295
17.312,3.9001450367213693
17.316,3.8503882518853061
17.32,3.8308757872437127
17.324,3.8263228788273409
17.328,3.8201439316908363
17.332,3.8045339599775616
17.336,3.7957533508888446
17.34,3.7729888088069856
17.344,3.746321773796808
17.348,3.7271345168992411
17.352,3.7320126330596395
17.356,3.7014431051211432
17.36,3.6607921371178236
17.364,3.637051971803885
17.368,3.6246940775308758
17.372,3.6246940775308758
17.376,3.5892464334319811
17.38,3.5625793984218035
17.384,3.5674575145822018
17.388,3.5564004512852989
17.392,3.5352619479235727
17.396,3.5098957438895013
17.4,3.5043672122410499
17.404,3.5154242755379528
17.408,3.4861555785755627
17.412,3.4481062725244556
17.416,3.4207888220262248
17.42,3.4289190156268887
17.424,3.4058292658010032
17.428,3.3710320371901616
17.432,3.3398120937636122
17.436,3.332657523395028
17.44,3.3180231749138329
17.444,3.2942830095998943
17.448,3.2640386894054245
17.452,3.2305422917706892
17.456,3.2285910453065298
17.46,3.2015988025523257
17.464,3.157370549364714
17.468,3.1544436796684749
17.472,3.1547688874125015
17.476,3.1271262291702442
17.48,3.0946054547675885
17.484,3.0793206907983404
17.488,3.0659871732932515
17.492,3.0409461770032067
17.496,3.0360680608428083
17.5,3.0315151524264365
17.504,3.0061489483923651
17.508,2.9898885611910373
17.512,2.9775306669180281
17.516,2.968099642341258
17.52,2.9609450719726738
17.524,2.9511888396518771
17.528,2.9485871776996646
17.532,2.9430586460512131
17.536,2.9472863467235584
17.54,2.9346032447065227
17.544,2.8799683437100612
17.548,2.8422442454029806
17.552,2.8194797033211216
17.556,2.7911866295908112
17.56,2.7746010346454568
17.564,2.7658204255567398
17.568,2.7573650242120493
17.572,2.7440315067069605
17.576,2.7137871865124907
17.58,2.6975267993111629
17.584,2.6965511760790832
17.588,2.6916730599186849
17.592,2.6991528380312957
17.596,2.704030954191694
17.6,2.6770387114374898
17.604,2.6506968841713388
17.608,2.6451683525228873
17.612,2.6230542259290814
17.616,2.5807772192056291
17.62,2.4728082481888123
17.624,2.3697173933323938
17.628,2.3163833233120386
17.632,2.3921567276702262
17.636,2.7024049154715613
17.64,3.1824115456547588
17.644,3.7853467030799948
17.648,4.3899078992253635
17.652,4.6851965308014769
17.656,4.6965788018424064
17.66,4.6965788018424064
17.664,4.6536513796309009
17.668,4.0377079124446027
17.672,3.1863140385830775
17.676,2.4893938431341667
17.68,2.0932908109098207
17.684,2.0184930297837127
17.688,2.0754043849883601
17.692,2.1212586768961046
17.696,2.1508525816025212
17.7,2.1876010566775221
17.704,2.2276016091927886
17.708,2.2516669822507538
17.712,2.2445124118821695
17.716,2.2240243240084965
17.72,2.2110160142474342
17.724,2.2204470388242044
17.728,2.2106908065034077
17.732,2.2113412219914608
17.736,2.2210974543122575
17.74,2.2152437149197794
17.744,2.1947556270461064
17.748,2.1820725250290707
17.752,2.1843489792372566
17.756,2.186950641189469
17.76,2.1817473172850441
17.764,2.169389423012035
17.768,2.1515029970905744
17.772,2.1628852681315038
17.776,2.1593079829472117
17.78,2.1550802822748665
17.784,2.1713406694761943
17.788,2.1794708630768582
17.792,2.1817473172850441
17.796,2.1902027186297346
17.8,2.2110160142474342
17.804,2.2223982852883637
17.808,2.2269511937047355
17.812,2.2295528556569479
17.816,2.2386586724896915
17.82,2.2689029926841613
17.824,2.2893910805578344
17.828,2.2939439889742061
17.832,2.2952448199503124
17.836,2.316058115568012
17.84,2.3541074216191191
17.844,2.3837013263255358
17.848,2.4071162838954479
17.852,2.4250027098169085
17.856,2.4357345653697848
17.86,2.4425639279943425
17.864,2.4315068646974396
17.868,2.4412630970182363
17.872,2.4477672518987674
17.876,2.4256531253049616
17.88,2.4054902451753151
17.884,2.3876038192538545
17.888,2.356383875827305
17.892,2.3134564536157995
17.896,2.2555694751790725
17.9,2.1963816657662392
17.904,2.152478620322654
17.908,2.1036974587186705
17.912,2.0331273782649077
17.916,1.9791428927564994
17.92,1.9528010654903483
17.924,1.9254836149921175
17.928,1.8919872173573822
17.932,1.8780032843642402
17.936,1.8763772456441075
17.94,1.8630437281390186
17.944,1.8406043938011862
17.948,1.821742344647646
17.952,1.8194658904394601
17.956,1.8347506544087082
17.96,1.8331246156885754
17.964,1.8262952530640177
17.968,1.824669214343885
17.972,1.8168642284872476
17.976,1.827596084040124
17.98,1.8220675523916725
17.984,1.8139373587910086
17.988,1.8191406826954335
17.992,1.8191406826954335
17.996,1.8311733692244161
18,1.8350758621527348
18.004,1.842230432521319
18.008,1.8454825099615846
18.012,1.8386531473370269
18.016,1.8386531473370269
18.02,1.8487345874018501
18.024,1.8542631190503016
18.028,1.8467833409376908
18.032,1.8386531473370269
18.036,1.8409296015452128
18.04,1.842230432521319
18.044,1.8435312634974252
18.048,1.8441816789854784
18.052,1.8406043938011862
18.056,1.8383279395930003
18.06,1.8402791860571597
18.064,1.8409296015452128
18.068,1.8584908197226468
18.072,1.8809301540604793
18.076,1.8721495449717622
18.08,1.8675966365553904
18.084,1.8744259991799481
18.088,1.882556192780612
18.092,1.8789789075963199
18.096,1.8659705978352576
18.1,1.8646697668591514
18.104,1.8802797385724261
18.108,1.8812553618045058
18.112,1.8718243372277357
18.116,1.8646697668591514
18.12,1.8711739217396826
18.124,1.8744259991799481
18.128,1.8731251682038419
18.132,1.8701982985076029
18.136,1.8747512069239747
18.14,1.8851578547328245
18.144,1.873775583691895
18.148,1.8718243372277357
18.152,1.870848713995656
18.156,1.8741007914359216
18.16,1.8757268301560543
18.164,1.8757268301560543
18.168,1.8718243372277357
18.172,1.8646697668591514
18.176,1.8575151964905672
18.18,1.8425556402653456
18.184,1.8380027318489738
18.188,1.8288969150162302
18.192,1.8181650594633538
18.196,1.8035307109821588
18.2,1.8097096581186634
18.204,1.8256448375759646
18.208,1.827596084040124
18.212,1.8386531473370269
18.216,1.8584908197226468
18.22,1.8558891577704344
18.224,1.851011041610036
18.228,1.8344254466646817
18.232,1.8301977459923364
18.236,1.8428808480093721
18.24,1.8627185203949921
18.244,1.8828814005246386
18.248,1.8890603476611432
18.252,1.8841822315007448
18.256,1.8646697668591514
18.26,1.8308481614803895
18.264,1.8051567497022916
18.268,1.7882459470129106
18.272,1.7905224012210965
18.276,1.7840182463405654
18.28,1.7719855598115828
18.284,1.7687334823713172
18.288,1.7804409611562733
18.292,1.7814165843883529
18.296,1.7765384682279546
18.3,1.7755628449958749
18.304,1.7849938695726451
18.308,1.7879207392688841
18.312,1.7875955315248575
18.316,1.7911728167091496
18.32,1.7918232321972027
18.324,1.7664570281631313
18.328,1.6819030147162266
18.332,1.5901944309007376
18.336,1.5579988642421085
18.34,1.6854802999005187
18.344,2.0168669910635799
18.348,2.5167112936323974
18.352,3.1479395247879438
18.356,3.7635577842302155
18.36,4.2461660763656255
18.364,4.5151128806755878
18.368,4.4695837965118699
18.372,3.9512026525335386
18.376,3.1300530988664832
18.38,2.3778475869330578
18.384,1.7801157534122467
18.388,1.4796237979317084
18.392,1.4327938827918842
18.396,1.4727944353071507
18.4,1.5072664561739657
18.404,1.5550719945458695
18.408,1.5976742090133484
18.412,1.6275933214637917
18.416,1.6402764234808274
18.42,1.6406016312248539
18.424,1.6396260079927742
18.428,1.6435285009210929
18.432,1.6597888881224208
18.436,1.6789761450199876
18.44,1.6978381941735279
18.444,1.7079196342383511
18.448,1.7124725426547229
18.452,1.72125315174344
18.456,1.7319850072963163
18.46,1.7355622924806084
18.464,1.7430420705932193
18.468,1.7495462254737504
18.472,1.7527983029140159
18.476,1.7596276655385736
18.48,1.7576764190744143
18.484,1.7719855598115828
18.488,1.7914980244531762
18.492,1.7970265561016276
18.496,1.7993030103098135
18.5,1.8236935911118053
18.504,1.848084171913797
18.508,1.8607672739308327
18.512,1.8682470520434435
18.516,1.8867838934529573
18.52,1.9088980200467631
18.524,1.9235323685279582
18.528,1.945646495121764
18.532,1.9602808436029591
18.536,1.9758908153162338
18.54,1.99702931867796
18.544,2.0123140826472081
18.548,2.031501339544775
18.552,2.0526398429065011
18.556,2.0841849940770771
18.56,2.1036974587186705
18.564,2.1157301452476531
18.568,2.1365434408653527
18.572,2.1625600603874773
18.576,2.1833733560051769
18.58,2.1963816657662392
18.584,2.2181705846160185
18.588,2.2256503627286293
18.592,2.2171949613839388
18.596,2.1993085354624782
18.6,2.1895523031416815
18.604,2.1661373455717694
18.608,2.123860338848317
18.612,2.0744287617562804
18.616,2.0321517550328281
18.62,2.0006066038622521
18.624,1.9784924772684462
18.628,1.9482481570739765
18.632,1.9154021749272943
18.636,1.9033694883983117
18.64,1.8903611786372494
18.644,1.8828814005246386
18.648,1.8789789075963199
18.652,1.8705235062516294
18.656,1.8591412352107
18.66,1.8542631190503016
18.664,1.8500354183779564
18.668,1.8503606261219829
18.672,1.8594664429547265
18.676,1.8643445591151249
18.68,1.8617428971629124
18.684,1.8646697668591514
18.688,1.8802797385724261
18.692,1.8988165799819399
18.696,1.9056459426064976
18.7,1.9131257207191084
18.704,1.9362154705449939
18.708,1.9554027274425607
18.712,1.9700370759237558
18.716,1.9856470476370305
18.72,2.0051595122786239
18.724,2.020444276247872
18.728,2.034428209241014
18.732,2.0458104802819435
18.736,2.0610952442511916
18.74,2.0692254378518555
18.744,2.06597336041159
18.748,2.0649977371795103
18.752,2.0695506455958821
18.756,2.083534578589024
18.76,2.0952420573739801
18.764,2.1049982896947768
18.768,2.1199578459199984
18.772,2.1258115853124764
18.776,2.100445381278405
18.78,2.0845102018211037
18.784,2.0767052159644663
18.788,2.0656481526675634
18.792,2.0571927513228729
18.796,2.0480869344901294
18.8,2.0516642196744215
18.804,2.0698758533399086
18.808,2.0767052159644663
18.812,2.0858110327972099
18.816,2.0945916418859269
18.82,2.1046730819507502
18.824,2.1131284832954407
18.828,2.1118276523193344
18.832,2.1079251593910158
18.836,2.120933469152078
18.84,2.1401207260496449
18.844,2.1453240499540698
18.848,2.1498769583704416
18.852,2.1498769583704416
18.856,2.1397955183056183
18.86,2.1293888704967685
18.864,2.1235351311042905
18.868,2.1271124162885826
18.872,2.1290636627527419
18.876,2.1160553529916797
18.88,2.1105268213432282
18.884,2.1176813917118125
18.888,2.1225595078722108
18.892,2.1206082614080515
18.896,2.1173561839677859
18.9,2.1222343001281843
18.904,2.1323157401930075
18.908,2.1394703105615918
18.912,2.1267872085445561
18.916,2.1115024445753079
18.92,2.1183318071998656
18.924,2.1287384550087154
18.928,2.1310149092169013
18.932,2.1274376240326092
18.936,2.1420719725138042
18.94,2.1508525816025212
18.944,2.1528038280666806
18.948,2.1505273738584947
18.952,2.152478620322654
18.956,2.1622348526434507
18.96,2.1622348526434507
18.964,2.1550802822748665
18.968,2.1606088139233179
18.972,2.1690642152680084
18.976,2.1732919159403536
18.98,2.1804464863089379
18.984,2.186950641189469
18.988,2.1944304193020798
18.992,2.1983329122303985
18.996,2.1993085354624782
19,2.2071135213191155
19.004,2.224349531752523
19.008,2.2337805563292932
19.012,2.2402847112098243
19.016,2.2506913590186741
19.02,2.2614232145715505
19.024,2.2682525771961082
19.028,2.2744315243326128
19.032,2.2841877566534095
19.036,2.2945944044622593
19.04,2.2952448199503124
19.044,2.2841877566534095
19.048,2.2802852637250908
19.052,2.2945944044622593
19.056,2.313131245871773
19.06,2.32191185496049
19.064,2.3293916330731008
19.068,2.3515057596669067
19.072,2.3827257030934561
19.076,2.4022381677350495
19.08,2.416547308472218
19.084,2.4331329034175724
19.088,2.4607755616598297
