-0.0136490416339743
0.024392770198277
0.110979738870438
0.281793770590871
0.549794005491042
0.900762127472167
1.29529251683381
1.67678078567937
1.98353381566119
2.1621490212734
2.17903956887992
2.02748078943461
1.72868437236425
1.32687623462651
0.87978616438921
0.446984875397691
0.0788606825824812
-0.191362445052062
-0.351147052946378
-0.407529423432161
-0.38231716046359
-0.305248093932025
-0.206934121133029
-0.113111274181976
-0.0411160866259482
0.001176963622497
0.0143065442166879
0.00478308705399576
-0.017904312244713
-0.0440830221054051
-0.0659734196461407
-0.0788076857095728
-0.0810115792470291
-0.073659072102994
-0.0595072110160842
-0.0419278977118299
-0.0239944819106666
-0.00788239724975424
0.00536585827573798
0.0157548246253782
0.0240342311459031
0.0313091998629621
0.0386786406040624
0.0469817631168602
0.0566859110518325
0.0679052844761746
0.0805096482415356
0.0942693269823959
0.108986613246783
0.12457931209684
0.141102928046122
0.15871734633729
0.17761676103538
0.197946059264295
0.219724032285731
0.242786643797746
0.266755406183585
0.291029273263346
0.314794811359642
0.33704906006491
0.356632025049823
0.372270393782159
0.382639258108503
0.386451318399142
0.382579580028032
0.37020843575595
0.34899230669071
0.319187666850379
0.28172056277625
0.238161171451086
0.190597400134441
0.141424187250936
0.0930854374316733
0.0478148762482232
0.00741879966625045
-0.0268691616125551
-0.0544480073925804
-0.0753265983857624
-0.0900323631598523
-0.099472494413635
-0.104771459804085
-0.107108734775684
-0.1075784521227
-0.107087745653319
-0.106302845539547
-0.105642604086796
-0.105310210541923
-0.105347610138726
-0.105695233975132
-0.106242608325095
-0.106862099139627
-0.107425815718414
-0.107811664343181
-0.107906906588524
-0.107615998744347
-0.106874909109936
-0.105668643616177
-0.104045107800965
-0.102118567732484
-0.100059460136017
-0.0980718783432217
-0.0963633974638808
-0.0951129618809343
-0.0944416297110501
-0.0943891646476814
-0.0948982059622348
-0.0958079188163827
-0.0968601174986461
-0.097721176164879
-0.0980211628976864
-0.0974075988732707
-0.0956064754138402
-0.0924795003998218
-0.0880654500148196
-0.0825955729808162
-0.0764776834890575
-0.0702494173695017
-0.0645066464478305
-0.0598175360618415
-0.05663594847645
-0.0552293147092438
-0.0556349014223876
-0.0576542083986783
-0.0608885358727481
-0.0648107260867146
-0.0688602915671136
-0.0725434175298007
-0.0755172883517805
-0.0776406638712389
-0.078979432118474
-0.0797658959435008
-0.080321786626622
-0.0809645020275811
-0.0819207339317031
-0.0832695828754283
-0.0849287739671059
-0.0866851773371921
-0.0882583841984602
-0.0893776364899231
-0.089850541941417
-0.0896065701421034
-0.0887067091868946
-0.0873196964019009
-0.0856729018562798
-0.0839914192621331
-0.0824415948471971
-0.0810942974687764
-0.0799182975223644
-0.0788058609834553
-0.0776229807984426
-0.0762683630223295
-0.074721378482009
-0.07306175978447
-0.0714527686256282
-0.0700921823971926
-0.0691472697220431
-0.068696334107705
-0.0686975858250984
-0.0689965418689753
-0.0693697454619012
-0.0695907130330016
-0.0694976576113203
-0.0690427846364563
-0.0683086533174139
-0.06748631878428
-0.0668205541894336
-0.0665367994363084
-0.0667699383686417
-0.0675149254979533
-0.0686137128756694
-0.0697834238936973
-0.07067984222104
-0.0709810025392915
-0.0704704634903599
-0.0690998146584632
-0.0670147679248442
-0.0645375843370589
-0.0621087576076328
-0.0602002795779176
-0.0592188195564397
-0.0594184517872421
-0.0608399005477816
-0.0632884424161092
-0.066356873690301
-0.0694934280863211
-0.0721067874202155
-0.0736915088229232
-0.0739489837422147
-0.0728748176554966
-0.0707868483700082
-0.0682800361318992
-0.0661122377427994
-0.0650426610746423
-0.0656571157610343
-0.0682181738618658
-0.0725739266217337
-0.0781477246983655
-0.0840154066597862
-0.0890586689018648
-0.0921663155096709
-0.0924425635174264
-0.0893771759385395
-0.082938886220806
-0.0735713815615705
-0.0620960265122005
-0.0495504342161576
-0.037009048578057
-0.0254350017289116
-0.0155997077284979
-0.00808154081411203
-0.00332584230259493
-0.00172513979184705
-0.00366824631808093
-0.00951310182575483
-0.0194602048081978
-0.0333373945347203
-0.050345726490699
-0.0688508623163866
-0.0863240268480833
-0.0995307514123276
-0.105026789026193
-0.0999477970335335
-0.082981865276095
-0.0553123741732765
-0.0212426069243572
0.0118044186851154
0.0341505955150078
0.0356694885202599
0.00837069065815178
-0.0506799519181031
-0.136786721300519
-0.236198787108851
-0.326556750741499
-0.379619903690472
-0.366159637419902
-0.262278285661803
-0.0558559488898291
0.248466884901109
0.62724959813428
1.04007621397034
1.43527528087335
1.75857617312917
1.96294378089904
2.01746166866231
1.91329195730005
1.66537575749828
1.30948644928085
0.895292777169533
0.476994745195789
0.103633801102721
-0.188815448427768
-0.382009894420715
-0.475824032451088
-0.485332688020896
-0.435355450325891
-0.354106632794497
-0.267430013719459
-0.194691553870146
-0.146828030234924
-0.126481501272035
-0.129721245836563
-0.148632581007412
-0.174037293949746
-0.197757328906897
-0.214071408651822
-0.220270026331415
-0.216427755173372
-0.204646634031013
-0.188070477438559
-0.169939811517522
-0.152877169429437
-0.138493294125149
-0.127313010612544
-0.118952619346083
-0.11244548160533
-0.106607261003421
-0.100350355150323
-0.0928896541208338
-0.0838195172205416
-0.0730759154403713
-0.0608214299509258
-0.0473011417100589
-0.0327147103295596
-0.017136852732162
-0.000499362138254338
0.0173718041716549
0.0366854883681462
0.0576071022648447
0.0801954574350218
0.104364836996746
0.129868531189789
0.156290719176257
0.18303306603946
0.20929067099415
0.234025188033876
0.255955267127077
0.273590123289249
0.285326950716924
0.289616722668542
0.285180252323523
0.271235424322423
0.247685381982578
0.215220679468844
0.175305338846946
0.130042309639289
0.0819405582005156
0.0336265964872692
-0.0124473094099338
-0.0542491975862948
-0.0903323812204416
-0.119903497762148
-0.14279750141715
-0.159378590535996
-0.170394227677802
-0.176811000992774
-0.179658266784357
-0.179900520623552
-0.178353203453042
-0.175648734281676
-0.172249391778432
-0.168492340269637
-0.164643390439402
-0.160935000767646
-0.157573029379011
-0.154712770651029
-0.152420280782704
-0.150642456591329
-0.149205770217437
-0.147851380888748
-0.146299378449308
-0.144323476794964
-0.141813697501333
-0.138808863286099
-0.135490182801789
-0.132137901159743
-0.129062002380032
-0.126523909606401
-0.12466841570454
-0.123483164740045
-0.122796751071904
-0.122316925929862
-0.121699949002129
-0.120633913900654
-0.1189153120992
-0.116499849411946
-0.113514676050306
-0.110228180452369
-0.106983670973619
-0.104112585866214
-0.101848837648208
-0.100266504517088
-0.0992578863303436
-0.0985591252583807
-0.0978183239716772
-0.0966892849320922
-0.0949261684840757
-0.0924535589497841
-0.089393334070783
-0.0860419771034324
-0.0828053734511544
-0.0801087041400767
-0.0783041378879349
-0.0775976795717902
-0.0780097726052841
-0.0793749172927402
-0.0813769404796505
-0.0836104796920518
-0.0856557237196391
-0.0871519818655588
-0.0878563319198348
-0.0876766882465581
-0.0866737868679824
-0.0850328938872234
-0.0830124110056101
-0.0808816954142951
-0.0788629059112049
-0.0770905048418964
-0.0755972026170203
-0.0743278848420835
-0.0731755404410872
-0.0720276455706922
-0.0708093520013642
-0.0695115127345009
-0.0681963815264439
-0.0669804213018041
-0.0660002044006871
-0.0653718134366002
-0.0651550728259803
-0.0653315583784523
-0.0658011373943306
-0.0663972540710382
-0.0669169777190318
-0.0671584709941447
-0.0669570528414767
-0.066212340252457
-0.0649024422887033
-0.063084744395741
-0.0608847134719462
-0.0584745060925924
-0.0560435457931616
-0.0537650612906743
-0.0517658092500983
-0.0501089251011632
-0.0487990037574903
-0.0478120929765537
-0.0471426096938484
-0.0468490516786295
-0.0470763611516219
-0.0480379096540314
-0.0499531177637475
-0.0529530950954827
-0.0569805276373909
-0.0617164048429786
-0.066562530128029
-0.0706956863359599
-0.0731904146254072
-0.0731880499196187
-0.0700753812124123
-0.0636308328727427
-0.0541008187343876
-0.0421833181432291
-0.0289174706819481
-0.0155026539188639
-0.00309128353025714
0.00739100492505841
0.0153505828334229
0.0205305229836918
0.0229190336125152
0.0225971794104247
0.0195856267555014
0.0137590971854309
0.00488432424530751
-0.00719850309278782
-0.0222822317273445
-0.039471390123902
-0.0569550612443965
-0.0720046924467608
-0.0812974722587065
-0.0815951229363946
-0.0707049554419599
-0.048534909046646
-0.0179566589094359
0.0148553768475956
0.0409057824357828
0.049842935769184
0.0323419539649203
-0.0169435044593727
-0.0964862743339493
-0.195855934661495
-0.295365469209914
-0.367970914190166
-0.383529995515495
-0.314899279477932
-0.144721972597259
0.128673564308145
0.487903788976062
0.896924396586326
1.30560851594968
1.65789247064148
1.90190766995991
1.99991080154819
1.93576308006918
1.71821769858558
1.37922399943949
0.967615767093459
0.539638235144284
0.148501023063622
-0.164692274743864
-0.376749855124621
-0.483984508809254
-0.499753163687871
-0.449038946068586
-0.361695136759965
-0.266007434477987
-0.183861558442007
-0.128201120149522
-0.102821974997247
-0.104034862331953
-0.12343049412681
-0.150918087112711
-0.177338705995999
-0.196205492443721
-0.204413209703071
-0.20201901400663
-0.191375554791046
-0.17597375273724
-0.159330456230389
-0.144162299782965
-0.131960290148132
-0.122958349992411
-0.116400513495675
-0.110967166322298
-0.105218726185951
-0.0979456610891399
-0.0883632607556664
-0.0761433092911379
-0.0613191097455196
-0.044125679709462
-0.0248399622881837
-0.00366947574644958
0.0192899414360003
0.0440347625285543
0.0705984959753845
0.0989890482027997
0.129136491749682
0.160853089478405
0.193796970953125
0.227431987415221
0.26098664689985
0.293425972343326
0.323453482300551
0.349554622090416
0.370082886718348
0.383381984973957
0.387934180315252
0.382524171692489
0.366405683821689
0.339452229996105
0.302265776423683
0.25621238693147
0.203358716309109
0.146300458490006
0.0878997200652472
0.0309733444856996
-0.022011279752653
-0.0691773422293701
-0.109376120119394
-0.142204011780181
-0.167908155699565
-0.187212096937937
-0.201106814042192
-0.210654017522561
-0.216837556737542
-0.220479347923328
-0.222216089345866
-0.222519178001382
-0.221735793833214
-0.220132804429392
-0.217932975884876
-0.215340250550649
-0.212554095065236
-0.209771869770813
-0.207176386654091
-0.204908081159075
-0.20302881878921
-0.201492850446777
-0.200142822322245
-0.198741358162773
-0.197034144049286
-0.194825515080782
-0.192039383892347
-0.188741221589714
-0.185110304559075
-0.181370197691166
-0.17770134996679
-0.174166208816733
-0.170672686126147
-0.16698895375631
-0.16280633017176
-0.157832417559345
-0.151887703280246
-0.144977882507864
-0.13732117535393
-0.12932267502852
-0.121502667928135
-0.114398755289158
-0.108468432040549
-0.104016754971377
-0.101163178718686
-0.099847013645343
-0.0998591230070453
-0.100883641217606
-0.102538015840607
-0.104408233569474
-0.10608283546033
-0.107190501032101
-0.107441733130357
-0.106668810979613
-0.104853805057472
-0.102134753792624
-0.0987852593668078
-0.0951704210451943
-0.0916884601748
-0.0887097286371632
-0.0865230051356607
-0.0852956170099516
-0.0850515498403746
-0.0856706723794218
-0.0869108699894904
-0.0884516309822891
-0.0899525171623023
-0.0911148715986621
-0.0917327222786384
-0.0917207991412156
-0.0911134634045876
-0.0900361576656729
-0.0886585546572001
-0.0871439969296029
-0.0856109573031399
-0.0841174572284186
-0.0826696656202548
-0.0812458547897305
-0.079822067615112
-0.0783885671140593
-0.076953789096288
-0.0755397982913648
-0.0741759435227492
-0.0728947755309648
-0.0717290338574956
-0.0707048877016949
-0.0698277242471828
-0.0690624170693105
-0.068316690183469
-0.0674394569080883
-0.0662432739561365
-0.0645519481777414
-0.0622640253617247
-0.0594143404629699
-0.0562123079347007
-0.0530389678710734
-0.0503947280083948
-0.0488036793897145
-0.0486939585186716
-0.0502822997740168
-0.053491739285884
-0.057924327600825
-0.0628982741030762
-0.0675448994975762
-0.0709483040703735
-0.0723017626860151
-0.0710505552713704
-0.066991806225609
-0.0603084709616372
-0.0515271722508013
-0.0414070943482591
-0.0307858848283565
-0.0204224079439636
-0.0108793762477963
-0.00247898111190881
0.00465599573957213
0.0104887648897424
0.014919803199573
0.0176553143996665
0.018147496379225
0.0156478288247402
0.0093877013203602
-0.00113388741065733
-0.0158110738520607
-0.0336256016187815
-0.0524788609550526
-0.0692654400783781
-0.0802653611317908
-0.0818727729866521
-0.071588998320819
-0.0491013319273896
-0.0171719906873349
0.0179913299119076
0.0471865125587205
0.0596672975812328
0.045546261010219
-0.00118535876702798
-0.0796456708711032
-0.179882301343938
-0.282368604485617
-0.359795999231527
-0.381311026470247
-0.318703001665696
-0.153391058281453
0.117407079963962
0.477028184783653
0.889547954531934
1.3042783069865
1.66399455583112
1.91530357962312
2.01891399569741
1.95747401023949
1.73914068326095
1.39601398025416
0.97777293807031
0.541991656568837
0.143387433040282
-0.175565538634579
-0.390695230809225
-0.497869347901801
-0.510558797446859
-0.454338717013842
-0.35997931526535
-0.256821903302783
-0.167764540479398
-0.106573134630291
-0.0775846084144109
-0.0773405530509141
-0.0973779334368193
-0.127330048584733
-0.157618032513051
-0.181266806274712
-0.194675873857478
-0.197441505781712
-0.191512034963528
-0.180039094974333
-0.166268603710755
-0.152721691317417
-0.140785244176821
-0.130703025651817
-0.121861939235213
-0.113220469842021
-0.103728710976695
-0.0926297043208571
-0.0795908300260144
-0.0646719127218857
-0.0481787841831009
-0.0304704595687743
-0.0117859646950899
0.00786047725428158
0.028692237747445
0.0510942045624579
0.0754748944806669
0.102109878371394
0.131012992222157
0.161870553308755
0.194051406886734
0.226680141882795
0.258741400204516
0.28917647799245
0.316941157644705
0.341012420232253
0.360354265479188
0.373871739971822
0.380391896541365
0.378707676570933
0.367704658304344
0.346563494796038
0.314999833420768
0.27347978152969
0.223343163943749
0.166783277664898
0.106666244071604
0.0462143411458332
-0.0113872135947417
-0.063382007896574
-0.107756999499007
-0.143424790004103
-0.170249755669156
-0.188927082844552
-0.200751028212679
-0.207325939298111
-0.210278704201054
-0.211024342663656
-0.210619624083401
-0.209717307952295
-0.208611316976813
-0.207345623305522
-0.205849684130962
-0.204061915402175
-0.202009906500743
-0.199830813447026
-0.197734550285779
-0.19593045721653
-0.194548731161368
-0.193587157213184
-0.192902266500876
-0.192246899511513
-0.191340047013002
-0.189945364776707
-0.187934144700519
-0.185315332981012
-0.182225874173594
-0.178885755787889
-0.175531300542099
-0.172345921570953
-0.169408353015015
-0.166673581929612
-0.163992150809551
-0.161161696154614
-0.157994166365204
-0.15437688798945
-0.150307938819386
-0.145895465372146
-0.141322663940055
-0.136790267659549
-0.132453900631528
-0.128374668661059
-0.124498542315848
-0.120673201345206
-0.116700194548644
-0.112408298507831
-0.107725799941236
-0.102728929525821
-0.0976508633463021
-0.092847243334039
-0.0887258602948967
-0.0856569782491974
-0.0838854094280436
-0.0834655670226356
-0.0842362760427982
-0.0858433717668644
-0.0878064986414625
-0.0896150136934448
-0.0908300239284727
-0.091167909800421
-0.0905458703256007
-0.0890806255167704
-0.0870441592034437
-0.0847911388906803
-0.0826781036142607
-0.0809937310541366
-0.0799139254302813
-0.0794875099989211
-0.0796501644205932
-0.0802578399214285
-0.0811277675205921
-0.0820757928176622
-0.0829421813218058
-0.0836027240549203
-0.0839666250262714
-0.083966148783342
-0.0835444663492433
-0.0826475212133481
-0.0812239063001321
-0.0792344453906039
-0.076670345972283
-0.0735753748702015
-0.0700645656460296
-0.0663312527277188
-0.0626366092990116
-0.0592805437735714
-0.0565579506457778
-0.0547081308292822
-0.0538667778079051
-0.0540296363118331
-0.0550360033982301
-0.0565793069798238
-0.0582499398813525
-0.0596102176568747
-0.0602921534158686
-0.0600982642248703
-0.0590783678440269
-0.0575550739765154
-0.0560789871019066
-0.0553109499626529
-0.0558500946559019
-0.0580472513202839
-0.0618556096541982
-0.0667678209140789
-0.0718690996792069
-0.0760038954643566
-0.078019223641273
-0.0770224660419288
-0.0725844615176071
-0.0648330776886867
-0.0544141528992151
-0.0423358113879994
-0.029745922319915
-0.0177096031605528
-0.0070487835884565
0.0017181924463
0.00833266090316985
0.0126752955360848
0.0146195701561844
0.0139184473570957
0.0101792493942549
0.00296345329099563
-0.00798409818721661
-0.0224163991103759
-0.0392641768377725
-0.0564400834974153
-0.0709003495321599
-0.0790609135753114
-0.0775830353345509
-0.0644278953197787
-0.0399562135925273
-0.00775245862688924
0.025178416234072
0.049130218491936
0.053449386550301
0.0291830280296076
-0.0278193568354623
-0.114056906845438
-0.216631009297013
-0.313392174619799
-0.37546601184887
-0.37211456533704
-0.277235975192462
-0.0762007527350227
0.228630721971916
0.615303373798569
1.04363793123386
1.46073546778288
1.80973346388734
2.04005373949245
2.11693027769053
2.02810453242173
1.78618979441903
1.42617153970341
0.998603198271323
0.560031846708114
0.162805433823586
-0.153510516654854
-0.367383223207374
-0.476438476525638
-0.494729702046397
-0.44728273913169
-0.363501815700191
-0.271009320750027
-0.191104504814047
-0.136438183077848
-0.11089855987455
-0.111233371060151
-0.129673821847895
-0.156785244756264
-0.183904390877568
-0.204762251706256
-0.216158596399381
-0.217787350031032
-0.211469832292788
-0.200119162438505
-0.186739404634854
-0.173680147039324
-0.162253711484588
-0.15271100953585
-0.144488412294627
-0.136594996777574
-0.12800786728862
-0.117973701034611
-0.106162241828035
-0.0926664975591514
-0.0778830482882237
-0.0623280347672481
-0.0464488938090388
-0.0304811570153048
-0.0143790529841885
0.00217445393036543
0.0196915987387443
0.0387625423088375
0.0599250222487088
0.083545547569531
0.109728516043006
0.138259557520504
0.168580815848356
0.199791488035718
0.230667809937123
0.259701759296749
0.285164125705518
0.305201561096265
0.317975757294351
0.321844809910417
0.315573193719489
0.298541018273752
0.270910860454502
0.233707652140199
0.18877788582237
0.138618039075258
0.0860925186918101
0.0340893162635464
-0.0148219318897611
-0.0586649274144291
-0.096216757299803
-0.127032574573015
-0.151344626060321
-0.169870186326559
-0.183577491328733
-0.193461296618483
-0.200371132248993
-0.204918547907485
-0.207468882019552
-0.208203171244601
-0.207221184769144
-0.204650373970795
-0.200728735802897
-0.195840445085923
-0.190497773586977
-0.185277054392853
-0.180727127331728
-0.17727405496612
-0.175145308995847
-0.174330757913466
-0.174588668121502
-0.175495112025465
-0.176526536701641
-0.177158791834492
-0.176962493597607
-0.17567516496164
-0.173235500401272
-0.169773453609896
-0.165559736430468
-0.160927589255281
-0.156186346634388
-0.151548670501865
-0.147090304956164
-0.142752992060259
-0.138389425381714
-0.133836762572732
-0.128996055047704
-0.123892507294251
-0.118697278232944
-0.113703835377871
-0.1092661428667
-0.105717023243344
-0.103289349260174
-0.102059704793663
-0.101926070679342
-0.102621694983443
-0.103759724782834
-0.104898467286887
-0.105614747009175
-0.105572136544376
-0.104571983705984
-0.102578362449654
-0.0997130447649953
-0.096222605199058
-0.0924257230996157
-0.0886529334917953
-0.0851917613264611
-0.0822470565574328
-0.0799211696644909
-0.0782137930573306
-0.0770381222120632
-0.0762483438391913
-0.0756728755332714
-0.0751480368351742
-0.0745476299312405
-0.0738047644083749
-0.0729229178181962
-0.0719738686037995
-0.071081179298084
-0.0703898059232929
-0.0700255165120308
-0.0700517939696768
-0.0704352683437688
-0.0710313394127079
-0.0715982025584116
-0.0718404165132529
-0.0714743567338616
-0.0703000190960994
-0.0682594586943898
-0.0654637820213718
-0.0621783393862536
-0.0587674870068857
-0.0556122865113466
-0.0530229010646175
-0.0511694167776092
-0.050049554730415
-0.0495010556168037
-0.0492543487455544
-0.0490115237204874
-0.0485327189906569
-0.0477106330862678
-0.0466167434257304
-0.045507985501466
-0.0447894933375516
-0.0449369828647546
-0.0463907239119933
-0.0494405284027105
-0.0541258162524076
-0.0601745664708858
-0.0669989653591324
-0.0737547839369541
-0.0794581515093741
-0.0831401049208112
-0.0840090462492316
-0.0815870766358095
-0.0757901903716897
-0.066934522876708
-0.0556688709379771
-0.0428531637364932
-0.0294177605757134
-0.0162438016474714
-0.0040972282373609
0.00637017311908992
0.0145646254509629
0.0198744608798772
0.0216238002392047
0.0191042150747316
0.011714705873669
-0.000792918344705077
-0.0180082247787052
-0.038581618044844
-0.0600818482827039
-0.0791052701940785
-0.091716247166806
-0.0942268112593046
-0.0842241670539335
-0.0616465701783949
-0.0296198153256364
0.00527003252303926
0.0335487734939845
0.0444139578701698
0.0281992690967293
-0.0206186638438951
-0.100501238389433
-0.200821462418562
-0.301532582315937
-0.375098413682906
-0.3907835741872
-0.320779121444456
-0.147016628025653
0.132901364533388
0.502276797370561
0.925609650572942
1.35300937920773
1.72811229586218
1.99797129094224
2.12282606389027
2.08362425935157
1.8856416012417
1.55740550204498
1.14516042539211
0.704103948477714
0.288344035115629
-0.0582197865319712
-0.308202940532189
-0.453140861237777
-0.501933190189844
-0.476203997649431
-0.404039350737909
-0.313689102981782
-0.228536682977449
-0.164104104209944
-0.127257734817957
-0.117273747095104
-0.128107269552516
-0.151111948741241
-0.177545445603073
-0.200405781662548
-0.215397709197322
-0.221061141857277
-0.218260676530685
-0.209317671587534
-0.197068251937014
-0.184071820798413
-0.172102852259356
-0.161961890820843
-0.153561927124876
-0.146196495932342
-0.13887922381672
-0.130656700590935
-0.120827946347466
-0.109042737724089
-0.0952868851647797
-0.0797876939307169
-0.062883882986051
-0.04490164041914
-0.0260659581099813
-0.00645968057616693
0.0139723359974774
0.0353860761724873
0.0579832987432463
0.0819511705182994
0.107403755791929
0.134326837023126
0.162524129592826
0.191563317629618
0.220724688282878
0.248962289360807
0.274894770799459
0.296846474142773
0.312955260140303
0.321350870808488
0.320388934158663
0.308906593841179
0.286452462735484
0.253441047604118
0.211192008906592
0.161835936605122
0.108095528104546
0.0529770366203573
-0.000574947763943186
-0.050000051102116
-0.0933692876425354
-0.129521504160862
-0.158077286405411
-0.179342521490336
-0.194133013220561
-0.20356221229869
-0.208834643761822
-0.211078918508544
-0.211239665109888
-0.21003193270688
-0.207948654743511
-0.205303905502501
-0.202292372936014
-0.199047825062444
-0.195688590045978
-0.192344078709625
-0.189161452413798
-0.186294975250511
-0.183882630944282
-0.182015915219678
-0.180709878150196
-0.179881417974675
-0.179343668036393
-0.178821961354544
-0.177992007890834
-0.176534734131475
-0.174196750408646
-0.170842401506704
-0.166483799160749
-0.161279446935864
-0.155499614452046
-0.14946587090249
-0.143480367067331
-0.137764553336337
-0.132425032389379
-0.127456103045387
-0.122776602349467
-0.118287239121824
-0.113928286403837
-0.109718595982038
-0.105764345152454
-0.102236268575621
-0.0993236117983763
-0.0971790633868871
-0.0958703968472293
-0.095351742712078
-0.0954615454235258
-0.0959470735474177
-0.0965087283379706
-0.0968530970525547
-0.0967428481017298
-0.096033982731856
-0.0946951350221283
-0.0928077318096286
-0.0905488895253488
-0.0881608747343278
-0.0859120255379417
-0.0840544477971309
-0.0827839351272689
-0.0822077623674828
-0.0823260272969679
-0.083031162253709
-0.0841273032927386
-0.0853665407950573
-0.0864940369059506
-0.0872907435877588
-0.0876029890409616
-0.0873529861584139
-0.0865314507312325
-0.0851795613021787
-0.0833696769793967
-0.0811921299035449
-0.0787507449433544
-0.0761649439442187
-0.0735732975020135
-0.0711330716134224
-0.0690123132871962
-0.0673739953997218
-0.0663543205477399
-0.0660388964134644
-0.0664412437484352
-0.0674880348197007
-0.0690144708241524
-0.0707715686643544
-0.0724456172838998
-0.0736892422035273
-0.0741631476164022
-0.0735868596575039
-0.0717947894534801
-0.0687902440230329
-0.0647853596565233
-0.0602116489309755
-0.0556870315003344
-0.0519326552318441
-0.0496454878225998
-0.0493470197715572
-0.0512398764085452
-0.0551085584704358
-0.0602954389506335
-0.0657686533493515
-0.0702775878911188
-0.0725693064809988
-0.071621254950106
-0.0668374386688531
-0.0581609719453433
-0.046075984429162
-0.0315017385045687
-0.0156122819677866
0.000364401165851856
0.0153104920402174
0.0283042730622027
0.0386166521388447
0.0456415460643858
0.0488105258066284
0.04755269627271
0.0413508132932461
0.029915368686633
0.0134552893155093
-0.0070235927358448
-0.0295000968483588
-0.0509230794164138
-0.0675054306484787
-0.0753720334033741
-0.0715120871286465
-0.0548727169962765
-0.0273266135051184
0.00581460138192611
0.0360555363388711
0.0529450084469764
0.0462750044844024
0.00897436461158671
-0.0598638754208073
-0.152596743291083
-0.25211937011174
-0.333091980378591
-0.365562553545083
-0.32064760530645
-0.177288295457749
0.0714067575574662
0.413896242315119
0.819408423415196
1.24128676580989
1.62416058349662
1.91361969771678
2.06635682564179
2.0585286322145
1.89043796888109
1.58645998036025
1.19021974852207
0.756123916133579
0.339186773575462
-0.0145569888763406
-0.275009350757231
-0.431069641846027
-0.48958660714434
-0.470987212895907
-0.403029183053537
-0.314317621899166
-0.228982790742517
-0.163385339222697
-0.125091125560164
-0.11381335888117
-0.123666545363289
-0.145951737706112
-0.171768892069732
-0.193962270125539
-0.208168282099691
-0.212981200791268
-0.20943303882837
-0.200078377012291
-0.187985199932911
-0.175877467516625
-0.165581291690128
-0.157822420836171
-0.152332363922525
-0.148160488423987
-0.144066838223684
-0.13888244849652
-0.131760044309456
-0.122283871961519
-0.110449257738489
-0.0965506202908227
-0.0810274833998341
-0.0643139256692249
-0.0467238185520171
-0.0283883900126842
-0.00924849744300047
0.010906313633481
0.0323658124983923
0.0554100429278781
0.0802182636620009
0.106788002309462
0.134872250430241
0.16393861236225
0.193151363375399
0.221377032666096
0.247216282128554
0.269067982545941
0.285232808075744
0.294060384805952
0.294134309182361
0.284474661571311
0.264723309259253
0.235270450665627
0.197286491446674
0.152641323230796
0.103718025332006
0.0531517969605281
0.00354016593442873
-0.0428264446595821
-0.0841727609998059
-0.11935911764379
-0.147905247920742
-0.169924845943231
-0.185992531321915
-0.19697471942068
-0.203859131985571
-0.207612983071808
-0.20908830758255
-0.208978016664831
-0.207812935424108
-0.20598249245769
-0.203761505438508
-0.201331129707736
-0.198790066072986
-0.196159129954673
-0.193386119512442
-0.190357972633214
-0.186924152007999
-0.182930572475708
-0.178258899816699
-0.172863059965544
-0.166794209591014
-0.160207657315
-0.153349765322144
-0.146527949086969
-0.140070390132424
-0.134282956126161
-0.129409734358962
-0.125601956198236
-0.122898883109787
-0.121223464988144
-0.120394593152308
-0.120155665882977
-0.120215614386994
-0.120294473073663
-0.120163174648826
-0.119668392053744
-0.118737992093945
-0.117369075107338
-0.11560591740283
-0.113517250731355
-0.111180492666321
-0.108675859832395
-0.106088215298798
-0.103511513968972
-0.10105081945749
-0.098819217379198
-0.0969297806430412
-0.0954845788620378
-0.0945630034331902
-0.0942108542284258
-0.0944308498368519
-0.0951754532650265
-0.0963440122873388
-0.0977869800744197
-0.0993192415502936
-0.100742228751339
-0.101871442662816
-0.102563355158094
-0.102734491224996
-0.102366616427642
-0.101495527333368
-0.100185973802206
-0.0984999194437501
-0.0964679733358282
-0.0940735035444417
-0.0912556890049959
-0.0879324117336397
-0.0840379004472442
-0.0795651312854672
-0.0746006716553754
-0.0693407995441161
-0.0640822420861648
-0.0591874305527365
-0.0550305826618962
-0.0519352638610675
-0.0501156357635401
-0.0496327585892762
-0.0503746877990339
-0.0520651370206088
-0.0543007948861182
-0.0566128913307398
-0.0585448965283734
-0.0597352078795234
-0.0599911920856687
-0.0593396005860319
-0.0580393492008108
-0.056546909980686
-0.0554324205865851
-0.0552556158963071
-0.0564230753227829
-0.059058507292136
-0.0629212814470364
-0.0674017272107753
-0.0716046682988477
-0.0745091091984172
-0.0751689796273909
-0.0729054710432033
-0.0674418339305279
-0.0589476823901699
-0.047987035790469
-0.0353933670256144
-0.0221158209487882
-0.00908622724561121
0.00285549790426283
0.0129654844225978
0.0205477572939187
0.0248966682681122
0.0252834581352944
0.0210327062423733
0.0117082051152072
-0.00261223876643173
-0.0210384345580306
-0.0416485911425612
-0.0614684452383386
-0.0767519038085549
-0.083611596022862
-0.0789570664159093
-0.0615866295489475
-0.0331727557240647
0.0011856602030547
0.0331639858749947
0.0523819061176314
0.0485567397106444
0.0143787430263817
-0.0514431601980818
-0.141740359297878
-0.239891232195127
-0.320960563659786
-0.355252348737183
-0.313959498494899
-0.175938589645044
0.0658843579568186
0.40016590381461
0.796284830777117
1.2076877578158
1.57914700591979
1.85659525869811
1.99743783878174
1.97899727018444
1.80310498362891
1.49573597697075
1.10175946882985
0.676050779553038
0.273065381208746
-0.0627277423477538
-0.303506102915579
-0.44067418425757
-0.483297815600857
-0.453318301549261
-0.379085143701046
-0.288873831797055
-0.205753186974394
-0.1445982462423
-0.111407414858752
-0.104546447868626
-0.117211116603056
-0.140303918249698
-0.165023484270682
-0.184696278676086
-0.195656362333525
-0.1972293531717
-0.191053906714533
-0.180058380041995
-0.167406749237249
-0.155658258322853
-0.146279594619382
-0.139536852510748
-0.134702259590578
-0.130453687214106
-0.125328425961603
-0.118111421072653
-0.108080135423255
-0.0950788756275394
-0.0794413527343395
-0.0618118906458996
-0.0429288693313458
-0.0234297313818517
-0.00371979978357091
0.0160764350506749
0.0360863269350777
0.0566045822527725
0.0779833195774822
0.100524687236756
0.124394801387231
0.14956580574251
0.175782779385181
0.202547222265275
0.229109730671951
0.254469799051164
0.277387904854076
0.296421458305428
0.309999051240777
0.316543949501046
0.31464658623285
0.30326896697339
0.281947049933195
0.250947186978079
0.211334451432868
0.164925065249193
0.114118980524029
0.061635613635285
0.0101982008303835
-0.0377759857576461
-0.0804241813431743
-0.116584697157324
-0.145824193234273
-0.168354304815269
-0.184867974901408
-0.196338037886064
-0.20382138689053
-0.208303047691367
-0.210599528161132
-0.211324455932211
-0.210905736422141
-0.209634782069609
-0.207725567290233
-0.205363863427603
-0.202733830537899
-0.200018361820356
-0.197378599597577
-0.194924178982104
-0.192687466713146
-0.190612552967991
-0.188564449726403
-0.186357689055001
-0.183798096445992
-0.18072828794705
-0.177066819203278
-0.172832435399363
-0.168147907331175
-0.163222111540363
-0.158313760475047
-0.153684361347515
-0.149550306043232
-0.146043902230921
-0.143191004605639
-0.140909532060045
-0.139029367873461
-0.137330420156824
-0.13559210498714
-0.13364438444734
-0.131408580137628
-0.128916968680624
-0.126304667306844
-0.123774795783396
-0.121545807722772
-0.119795216016485
-0.118614774365996
-0.117988410280097
-0.11779741192473
-0.117850042071474
-0.117927048542804
-0.117831365224313
-0.117429599125989
-0.116674749552376
-0.115604390157348
-0.114315758655608
-0.112926555682745
-0.11153468000072
-0.110189776456416
-0.108884712217256
-0.107567936613979
-0.106170720608305
-0.104638838763692
-0.102957625427107
-0.101162300050722
-0.099330693163533
-0.0975613305849216
-0.0959445221777032
-0.0945360051537388
-0.0933409686148247
-0.0923118156300196
-0.0913581381953987
-0.0903643229738145
-0.0892098119602184
-0.0877887593638665
-0.0860283505566374
-0.0839068051474234
-0.0814717571888092
-0.0788570507162323
-0.0762922708059311
-0.0740967113644716
-0.0726498717130136
-0.0723348339611092
-0.0734584956439704
-0.076161656535091
-0.0803393612135686
-0.0855947084355947
-0.0912458160810903
-0.096395700273937
-0.100059998564234
-0.10133092469994
-0.0995423751515163
-0.0943959660661786
-0.0860145712657518
-0.0749086696502447
-0.0618669618590474
-0.0478077007921449
-0.0336408845433167
-0.0201866121751678
-0.00817124926719642
0.00171154985712998
0.00872050835111372
0.0120303917215171
0.0107977048095875
0.00435678672929785
-0.00747339522476525
-0.0240454271745137
-0.0436196838137805
-0.0633141162645092
-0.0793787403964394
-0.0878415197659102
-0.0854732951762403
-0.070904457876667
-0.0456229150408405
-0.0145238895117796
0.0143023684072204
0.0307489538222397
0.0248367632648869
-0.010445144406884
-0.0761532005948285
-0.165018309814343
-0.260511177186881
-0.338007237422253
-0.368318806833125
-0.323278449135064
-0.182414832431396
0.060752285794303
0.394465215757433
0.787942368621828
1.19476153846996
1.56011562685063
1.83060693499721
1.96448455648659
1.93998454592246
1.7597961413908
1.45056547817034
1.05753409479622
0.635585537442191
0.238822169675095
-0.0889272348900642
-0.320639901392128
-0.44853224731946
-0.482364110934234
-0.444567329749698
-0.363748380306156
-0.268225885536671
-0.180950881817178
-0.116585861469679
-0.0808840647140218
-0.0719803092317283
-0.0828807163851468
-0.104348289920757
-0.127489105419746
-0.145576842410607
-0.154928445301837
-0.154890042834707
-0.147164332246033
-0.134791218804179
-0.121089144155177
-0.108797147600634
-0.0995560529650878
-0.0937601929924638
-0.0907227659358996
-0.0890433349565591
-0.0870492089201692
-0.0831976909620344
-0.0763617903729773
-0.0659651236535173
-0.0519716703833398
-0.0347657310458698
-0.0149735744448208
0.00671943715262529
0.0297122428854977
0.0535663350704912
0.078014866641355
0.102917665730022
0.128188800633553
0.153725064229594
0.179356082751659
0.204822927964648
0.229777474353055
0.253785260658143
0.276314626942918
0.296705060308792
0.314124195828596
0.327538618525709
0.335730650614006
0.337386501177371
0.331260741881961
0.316394541999258
0.292341039967155
0.259340655640234
0.218396760303182
0.171225391800044
0.120083514265789
0.0675087484107254
0.0160216854346929
-0.0321535856500871
-0.0753033173384818
-0.112342228717679
-0.142827632267421
-0.166882482779414
-0.185056180463028
-0.198159496807004
-0.207108541557156
-0.212803809197407
-0.216056945712924
-0.217563611055827
-0.217909332553118
-0.217589155499151
-0.21702216029737
-0.21654807538733
-0.216403583667179
-0.216687292181668
-0.217330408399161
-0.2180914734732
-0.218587443320991
-0.21836239633822
-0.216982978486939
-0.214139995783526
-0.209731242892175
-0.203903496880423
-0.197041285878936
-0.189703680641279
-0.182523663248389
-0.176093779171499
-0.170864472187149
-0.167077205650694
-0.164744634504241
-0.163677885018486
-0.163550029655167
-0.16397768125854
-0.164600376796006
-0.165140043452747
-0.1654293789542
-0.16540669490476
-0.165083576854515
-0.164498543634264
-0.163672890996442
-0.162583007049964
-0.161157237592619
-0.159297146742403
-0.156915483640817
-0.153978212093387
-0.150536545123714
-0.146737519167138
-0.142807962625967
-0.139015092911975
-0.135614592983465
-0.13280110254471
-0.130675006695188
-0.129233344767612
-0.128383779325115
-0.127972763895429
-0.127816089542594
-0.127722925066805
-0.127510818925487
-0.127014863252363
-0.126096516396718
-0.124656098456582
-0.12264930870746
-0.120104522891953
-0.117135721790009
-0.113945827716253
-0.110816066506238
-0.108078152686939
-0.106068210995688
-0.105065355225999
-0.105223593737808
-0.106511425544705
-0.108676315310057
-0.111248595670339
-0.113590511177147
-0.1149835153917
-0.114735596621481
-0.112285260055191
-0.107281630742907
-0.0996288179606445
-0.0894930715882923
-0.0772800367870605
-0.0635951180431383
-0.0492019409185438
-0.0349910437843298
-0.0219622389773843
-0.011210709536432
-0.00389354183123365
-0.00114705608674937
-0.00393179660459226
-0.0128025866320777
-0.0276316003536474
-0.047345608156343
-0.06976554071872
-0.0916472094017938
-0.109006112501269
-0.117760215158083
-0.114644908588176
-0.0982578006240864
-0.0700002471609704
-0.0346245545797587
-9.70439155949816e-05
0.0234317970437315
0.0255909262603966
-0.00151313823404866
-0.0603330686002387
-0.145353117947415
-0.241806502552587
-0.326355554128354
-0.370120751304491
-0.34390000323293
-0.22477078149704
-0.00269321174238921
0.314566111885005
0.699736274309148
1.10851021208591
1.48614955417439
1.77711054353926
1.93568519941516
1.93523650672355
1.77381623657279
1.47476036756075
1.08206140531754
0.651603477558047
0.240359011895488
-0.103912743913995
-0.350187334134573
-0.487505119013158
-0.52386753010927
-0.481552715539485
-0.390420460043561
-0.280978778495901
-0.17871543639902
-0.100621701241644
-0.0541619383258922
-0.0383568096111673
-0.0462691508962041
-0.0680489870965634
-0.093777280704815
-0.115574282298363
-0.128722506347441
-0.131821279425735
-0.126187551888928
-0.11482197047973
-0.101271365884121
-0.0886587435539503
-0.079049371494395
-0.0732081747597402
-0.0707059616742151
-0.0702668381755318
-0.0702220575083048
-0.0689430570462015
-0.06515983896637
-0.0581185794502869
-0.0475813270187454
-0.0337087149767435
-0.0168859433498537
0.00244847209345242
0.0239278792849971
0.047316648545501
0.0725052594671818
0.0994578337746616
0.128134227449582
0.158407281027679
0.189990601056686
0.222386301824931
0.254856990276311
0.286422259397564
0.315877406532929
0.341831872944994
0.362767349742082
0.377119058928858
0.383385148697826
0.380265582373207
0.366823105707743
0.342647585053093
0.307995392465486
0.263871358082266
0.212024506054992
0.154840849854273
0.0951352520918373
0.0358659486150966
-0.0201853927595084
-0.070713642829917
-0.114116040501853
-0.149603180968821
-0.177178711658851
-0.197500313090856
-0.211660551725324
-0.220942019821573
-0.226602248333162
-0.229729586619126
-0.231185855276333
-0.231623635048801
-0.231545298984875
-0.231364055236238
-0.231435414678898
-0.232046197224057
-0.233369575541631
-0.235410350034611
-0.237969050087507
-0.240646204977651
-0.242893912893581
-0.244107171910897
-0.24373688923071
-0.241401379774801
-0.236972992662686
-0.230620634168931
-0.2227969119426
-0.214169423732142
-0.20550747040885
-0.197545635163618
-0.190851690709589
-0.185726497490407
-0.182157679801327
-0.17983791079461
-0.178244470550213
-0.176762205641906
-0.174821022740329
-0.172015457689651
-0.168179373131368
-0.163401715242103
-0.157985160516816
-0.152363505736961
-0.147002009645456
-0.142305736442392
-0.138554731026282
-0.135874227592127
-0.134237069675604
-0.133487972622541
-0.133377315946315
-0.13359527097056
-0.133802515047675
-0.133658463718632
-0.132850211285535
-0.131125170768651
-0.128328171712517
-0.124439818885409
-0.119608138056551
-0.114161936648565
-0.108594138373508
-0.103507811014912
-0.0995262740456249
-0.0971794942045095
-0.0967884879352607
-0.0983738802866033
-0.101612084539621
-0.105853644019133
-0.110205780317235
-0.113667537908721
-0.115292976992276
-0.114348403843639
-0.110427687576157
-0.103498444946852
-0.0938705947373137
-0.0821020811683687
-0.0688762261465738
-0.0548935338760981
-0.0408138383356312
-0.0272638515777153
-0.0148970754625548
-0.00446749467973749
0.00313490326929407
0.00693406647789832
0.00602805391204602
-0.000150122825999506
-0.0115179268203578
-0.0270541082183927
-0.044634466143262
-0.0610943701094384
-0.0725965490618811
-0.0753281333042937
-0.0664663169072934
-0.0452494744431183
-0.013894081406394
0.021960342172576
0.0535825354672177
0.0704524504932619
0.062524507723926
0.0231626563276661
-0.0478295142836426
-0.141876371748331
-0.240842375056823
-0.318458074067466
-0.344201451921093
-0.289255754467679
-0.133493613207426
0.12808441190708
0.481198804020516
0.891860843898024
1.31032112259045
1.67898476410274
1.94280822429026
2.05993618099679
2.01013639166205
1.79902365263127
1.4570297895586
1.0333314260755
0.586167849097702
0.171836277530312
-0.165108146304414
-0.398366007818439
-0.522015663953202
-0.548317540887345
-0.502290077249774
-0.414734032392335
-0.315452717035481
-0.228049166175836
-0.167059951651465
-0.137517442236104
-0.136488853106819
-0.155820091430215
-0.18523559464372
-0.21507033536121
-0.238160167040212
-0.250707164791384
-0.252196018596422
-0.244619127305823
-0.231352888337133
-0.216020706626659
-0.20160092723792
-0.189920834701843
-0.181554265611627
-0.176039742997
-0.172278210142055
-0.168960693920453
-0.164908911100681
-0.15926797761962
-0.151548465128646
-0.141557634444382
-0.129278553471837
-0.114752327635632
-0.0980002691852155
-0.0789989084159032
-0.0576998241526756
-0.0340741193161812
-0.00815979356224185
0.0199028196246808
0.0498514172694898
0.0812917105598209
0.113685965799763
0.146331649000016
0.17833088155866
0.208562915156884
0.235680354443697
0.258151586156591
0.274365313811031
0.282798567642067
0.282229511972322
0.271956367581556
0.251971684668269
0.22304372791714
0.186675387384921
0.144940744651589
0.100230540407037
0.0549600110333197
0.0112989832223305
-0.0290262458747067
-0.0648320343375586
-0.0954766595568605
-0.120781586167521
-0.140910450719361
-0.156244009019542
-0.167280969448686
-0.174578763639173
-0.178730416319668
-0.180360066524139
-0.180115333446704
-0.178640983046005
-0.176531730698627
-0.174275474984829
-0.172205207183343
-0.170475929361366
-0.16907450900728
-0.167859909416641
-0.166622391447417
-0.165145410843723
-0.163254264719327
-0.16084100099916
-0.157863942538379
-0.154329370221907
-0.150269171645788
-0.145728986972667
-0.140775614871397
-0.135521904371737
-0.130156500052321
-0.124959951283811
-0.120291200797154
-0.116538846348972
-0.114045618640056
-0.113026212626989
-0.113502941620925
-0.115279156011336
-0.117959461129613
-0.121012978369731
-0.123865182398863
-0.125997587526954
-0.127033814763207
-0.126795204714763
-0.125317457912144
-0.12282892064039
-0.119698465078969
-0.116365222288573
-0.113263817898878
-0.11075781611764
-0.109091363463493
-0.108365100867688
-0.108537871189565
-0.109451223048641
-0.110870068505709
-0.112531058253831
-0.114190530881537
-0.11566527187475
-0.116860434020557
-0.117779496862687
-0.118511952145303
-0.119196666024288
-0.119963315664941
-0.12086079953946
-0.121788576444885
-0.12245163027276
-0.122359299944331
-0.120881498646304
-0.117364164939534
-0.111291598762128
-0.102468981092697
-0.0911861519763708
-0.078316711751295
-0.0653084897580949
-0.0540352571851702
-0.046505229388912
-0.0444556294744745
-0.0488975800371563
-0.0597039461276894
-0.0753473422542576
-0.0928909022969834
-0.108306866502177
-0.117145873358646
-0.115505006923873
-0.101153219332048
-0.0745848175826936
-0.0397091273247082
-0.00387525561138707
0.0230001590666058
0.030275893525774
0.00923746060851855
-0.0438788226956324
-0.125168574023325
-0.221460503281589
-0.310589445355353
-0.364000298921373
-0.351626939716596
-0.248350217972617
-0.0407421913477635
0.267549674440698
0.653367739570861
1.07561948532793
1.48101169390575
1.81302952866734
2.02234043049884
2.07633045774231
1.96558989476507
1.70583086852626
1.33477109083443
0.90469688925657
0.472434759490839
0.0890422667598678
-0.208499072641167
-0.401939702403655
-0.492148058378993
-0.4957005185562
-0.438978828359056
-0.351449973759538
-0.259694142243899
-0.183277307667497
-0.132930520129201
-0.11089257004238
-0.112837197752273
-0.130603727318137
-0.154970476194635
-0.177892061074521
-0.193881800147446
-0.200480501572523
-0.197956695132976
-0.188503278223038
-0.175230291501779
-0.161219385585499
-0.148826758866191
-0.139323490444586
-0.132868416432764
-0.128737114050002
-0.125691770416652
-0.122372512988004
-0.117614911312978
-0.11063915329336
-0.101100446216167
-0.0890260862658113
-0.0746855755706097
-0.0584446343586407
-0.0406448151087462
-0.0215332143445347
-0.00124779351592998
0.0201517533541872
0.042626913106128
0.0660986252591729
0.090398371081641
0.11524070382001
0.140215286362725
0.164788382771164
0.188301851976135
0.209963362249429
0.228832651137569
0.243820189872857
0.253720589697683
0.257299107451784
0.253435205800651
0.241306662257194
0.220578833289691
0.191553834738747
0.155237666311566
0.113299070291111
0.0679175923998621
0.0215431827621895
-0.0233908740282262
-0.0647503570304937
-0.1009283076608
-0.130981568265991
-0.154657564492617
-0.172315571814739
-0.1847670067945
-0.193073122467592
-0.198343148028988
-0.201570758953297
-0.203533283200361
-0.204759920048507
-0.205557703727524
-0.206071955417269
-0.206354319827751
-0.206416132046818
-0.206255438620752
-0.205858562423897
-0.205187148703039
-0.204165757761991
-0.202682523523485
-0.200608152968352
-0.197829940502112
-0.194290724166711
-0.190020059777366
-0.185147091260969
-0.179890547097032
-0.174528396741444
-0.169355173936175
-0.164637166851498
-0.160574502264953
-0.157275772576632
-0.154747089247451
-0.152894924424512
-0.151541323838433
-0.150450173955401
-0.149362836889361
-0.148039950579806
-0.146303876297782
-0.144074134691395
-0.141387378676521
-0.138395033873558
-0.135335995722271
-0.132487787263064
-0.130105503072314
-0.128361840885117
-0.12730237665665
-0.126827578252992
-0.126707290495258
-0.126625894338487
-0.126249038697202
-0.125297651487853
-0.123612991809924
-0.12119808541488
-0.118225558914203
-0.115008674135859
-0.111940054025346
-0.109410051241137
-0.107722660788886
-0.107029452808322
-0.107299195226285
-0.10833203098286
-0.109814230789598
-0.111396756870351
-0.112772710729213
-0.113728522173276
-0.114152270834251
-0.11399737803509
-0.113215950011077
-0.111687744578319
-0.109174674511683
-0.105326505794105
-0.0997521277652203
-0.0921537364121753
-0.0825001349116804
-0.0711939708686594
-0.0591731975084297
-0.0478878190709861
-0.0391142976469061
-0.0346097445870764
-0.0356564845594022
-0.0425915013470215
-0.0544428797632029
-0.0687988672768565
-0.0820104541584084
-0.0897742641698193
-0.0880620056000676
-0.0742651417327695
-0.0483261830967963
-0.0135557206005929
0.0231846773793828
0.0521939844638381
0.0626467734679202
0.0451872091357335
-0.00500177747879882
-0.0853177835617857
-0.183868099858563
-0.2794037947205
-0.34359003761635
-0.345648422922277
-0.258764468325872
-0.0670248729085915
0.228763378022916
0.608036736954403
1.0314228822578
1.44599292350277
1.79405341680368
2.0237318074469
2.09902979066796
2.00702862688074
1.76054072943751
1.39555863418513
0.964089142211798
0.524061128403599
0.128661788748825
-0.182507520948305
-0.388665924428193
-0.488723756685196
-0.498165706519847
-0.443211118172159
-0.353948683013144
-0.258080002683421
-0.176459185451415
-0.120976480198747
-0.0947030651481297
-0.0937424459589976
-0.109995890285403
-0.134043855358829
-0.157516514492398
-0.174591796149052
-0.182536219213753
-0.181428556048469
-0.173343718299059
-0.161317449454811
-0.148376334597018
-0.136829665265034
-0.127911226411559
-0.121758726689209
-0.117646809539351
-0.114355413821143
-0.11055658011188
-0.105129652065041
-0.0973539967714738
-0.0869676427850737
-0.0741112560045794
-0.0591960444965731
-0.0427415096402027
-0.0252261469858098
-0.00698359623825357
0.0118386971335408
0.0312580040181875
0.0513862567799132
0.0723350282437401
0.0941214966710881
0.116596587418164
0.139406779487245
0.16199018947439
0.18359928229365
0.203339305229456
0.220213736287483
0.233174053221296
0.241177518580403
0.243259416154796
0.238622919988698
0.226741511246652
0.20745936773913
0.181068830454205
0.148343892296057
0.110515342826629
0.0691849546601163
0.0261891215071002
-0.0165676059356284
-0.0572842365682927
-0.0944167264726735
-0.126794654318346
-0.153689889453689
-0.174833412075471
-0.190383349973331
-0.200853155570406
-0.207013213568264
-0.209781320627486
-0.210116691509202
-0.208928537947944
-0.207005223237634
-0.204965490421517
-0.203230649881308
-0.202016005061275
-0.201340306539537
-0.201052407846045
-0.200873626868718
-0.200452524106955
-0.199426647505557
-0.197484142616979
-0.19441736852621
-0.190160865238923
-0.184807477464074
-0.178599512124443
-0.17189618628686
-0.16512314455883
-0.158713152571082
-0.153048360580285
-0.148413518723748
-0.144966502378018
-0.142728396412349
-0.141591505193374
-0.141341046827172
-0.141685332456341
-0.142289799912304
-0.14281192052438
-0.142935825630117
-0.142406246488618
-0.14106018847208
-0.138852076450506
-0.135865555112054
-0.132304718630846
-0.128460606988602
-0.124655179128651
-0.121172711805762
-0.118194573596609
-0.115754821870274
-0.113730037664638
-0.111868246564452
-0.109851080750879
-0.107373679714465
-0.104221464381277
-0.100323972375287
-0.0957730229027108
-0.0908026961363882
-0.0857383246017267
-0.0809283816549879
-0.0766758408747372
-0.0731842744765434
-0.070529332840412
-0.0686597014815376
-0.0674249777536474
-0.0666226369340546
-0.0660530895858331
-0.0655708739486184
-0.0651211188223785
-0.0647533446646461
-0.064609209390883
-0.0648864368146196
-0.0657866854833762
-0.0674587964452894
-0.0699495468297091
-0.0731720220802094
-0.076898087106137
-0.0807767338785841
-0.0843743444529089
-0.0872270750009209
-0.0888920781714949
-0.0889855805573157
-0.0872022716143127
-0.0833197299429063
-0.077199919973602
-0.0688035301792775
-0.0582298461774759
-0.0457846453481453
-0.0320631599200033
-0.0180187698779539
-0.00497713163737187
0.00544339782355381
0.0115274076360725
0.0117667945839949
0.00523213064634397
-0.00806001252256884
-0.0268725193618222
-0.048657741910298
-0.0697304133998283
-0.0857493991253513
-0.0925006200312085
-0.0868999745342209
-0.0680500039303075
-0.0381052276069087
-0.00265519430001218
0.0296487518087378
0.0483944538470207
0.0436171980319223
0.00863735434289873
-0.057019386781928
-0.145368885936335
-0.2391848018262
-0.313322665576308
-0.338391094867026
-0.286426671585043
-0.13759183086929
0.113590156841718
0.454130459851055
0.851997867283032
1.2597465767924
1.62200520823446
1.88543839045011
2.00903479242478
1.97235074501193
1.77973711458408
1.45950711705325
1.05822391474857
0.631476293062599
0.233341217543079
-0.0930366285507569
-0.321748394222211
-0.446244538226079
-0.477342012877365
-0.438147379398079
-0.35748771188656
-0.263508360043703
-0.17874643089855
-0.117395964795903
-0.084845892102773
-0.0790597259574901
-0.0930701608642261
-0.117798899031754
-0.144538375825275
-0.166670949910996
-0.18047049490467
-0.185064410409889
-0.181790318061801
-0.173248231840811
-0.162335268444473
-0.151479472114841
-0.142190943935343
-0.134949256766018
-0.129366559509339
-0.12451767376416
-0.119315271121616
-0.112825941863915
-0.104461803317158
-0.0940290090181452
-0.0816560163469376
-0.0676512396871385
-0.0523477146907772
-0.0359831557123126
-0.0186432127864316
-0.000271895237282293
0.0192665518969842
0.0401009920393419
0.0622697951156695
0.0856612086717304
0.109987126528316
0.134787812669008
0.159456615201365
0.183270684271299
0.205416432206203
0.225005566605595
0.241086398009658
0.252662438992358
0.25873292333464
0.258366067281672
0.250806147858424
0.23560236912723
0.212735133087857
0.182708387240576
0.146578746060888
0.105903661290515
0.0626089270523914
0.0187946470584947
-0.0234872541867685
-0.0624455467628861
-0.0967177357434136
-0.125470114448744
-0.148420578190505
-0.165788875029469
-0.178190184205618
-0.186495061648957
-0.191681084677225
-0.194698923280056
-0.196369189309397
-0.197318268761238
-0.197953464038076
-0.1984717046102
-0.198892726001633
-0.199106983266141
-0.19892966801508
-0.198153701972802
-0.196595855262124
-0.194131498029718
-0.190715386261035
-0.186388185678327
-0.181270643876738
-0.175548984658498
-0.16945584570537
-0.163250526762696
-0.157200430767485
-0.151563131535484
-0.146566869490292
-0.142387705474247
-0.139124408502048
-0.136776427552871
-0.135233705792877
-0.134287005862462
-0.133662581918196
-0.133076771793789
-0.132297747530213
-0.131196916650516
-0.129773671226435
-0.128144542008182
-0.126499134988525
-0.125036421533983
-0.123901627912961
-0.123143509069875
-0.122704542686499
-0.122445400517989
-0.122193870214975
-0.121800849252683
-0.121184495337253
-0.120348462615084
-0.119369450081672
-0.118359537417374
-0.117416465369665
-0.116578023724382
-0.1157948602713
-0.114930581514339
-0.113790689686593
-0.112174184055063
-0.109935000316562
-0.107036716385695
-0.103584876644307
-0.0998271093020192
-0.0961198447859429
-0.0928686549242993
-0.0904547341442703
-0.0891623237023741
-0.0891213958087508
-0.0902771754258275
-0.0923935421249064
-0.0950915320516783
-0.0979175011049901
-0.100428680200378
-0.102278426076633
-0.103281808836355
-0.103445898006795
-0.102957545744071
-0.102131837565918
-0.101333448913618
-0.100888684001945
-0.101007124963156
-0.101728817559995
-0.102906776681628
-0.104226753843302
-0.105258212516421
-0.105523893769012
-0.104571841901786
-0.102034477180899
-0.0976643489990949
-0.0913444511413651
-0.0830803619235303
-0.0729891318363966
-0.0613023498246076
-0.0483952790062843
-0.0348400940985348
-0.0214630527135624
-0.00937038641701817
9.65281375340759e-05
0.00550565465048204
0.00558370985537605
-0.000455505412431521
-0.0125621169458651
-0.0295658076685314
-0.0490566206988809
-0.06752709559328
-0.080839788998401
-0.0850205234542539
-0.0772875149998819
-0.0571261217974913
-0.027134170439942
0.00667550720515882
0.0353917611056806
0.0486879356406153
0.0371997052481317
-0.0045470362036639
-0.0752713015796602
-0.164928120182834
-0.254355520910071
-0.317151829969123
-0.323896508469738
-0.248205165198918
-0.07347738377344
0.201247066740533
0.557977995658968
0.960264045000226
1.35790722704806
1.69526823476806
1.92153082250239
2.00066233410809
1.91874823274461
1.68693106729552
1.33921449038378
0.925636237518808
0.502441734339741
0.121587526303637
-0.17803499922332
-0.375850892315137
-0.470551375498954
-0.477094281607112
-0.420997274069175
-0.331601888778674
-0.235928487658988
-0.154299938572019
-0.0982766124106989
-0.0708168821119862
-0.0681081761330835
-0.0822802213634413
-0.104213352625726
-0.125831846833445
-0.141538967066848
-0.148722595604606
-0.147475921473297
-0.139804927682083
-0.128630335952664
-0.11685368361157
-0.106673047478927
-0.0992327765705076
-0.0945983222590611
-0.091979105214439
-0.0900874807772918
-0.0875197471222347
-0.0830686157893259
-0.0759145512577171
-0.0656839578441335
-0.0523956333156304
-0.0363376840908103
-0.0179237694811429
0.00242859376514325
0.0243706940989853
0.0476395456959854
0.0720307052160445
0.0973494701658357
0.123363790282056
0.149774378061049
0.1762053111337
0.202207592320391
0.227263354294027
0.250781007173477
0.272079244498976
0.290366369782157
0.304727644231434
0.314135814243416
0.317498312824255
0.313748864797771
0.3019816766739
0.28161414050082
0.252551509125932
0.215318318425025
0.171120685538912
0.121812985335866
0.0697598930790572
0.0176056044045851
-0.0320187270032182
-0.0768040223453069
-0.115036310887853
-0.145783210186605
-0.168955994789347
-0.185232828954261
-0.195859183240224
-0.202370764068031
-0.206302176456846
-0.208943745257683
-0.211189884839493
-0.213493454395617
-0.215913017452225
-0.218222233875094
-0.220045245500145
-0.220986351382681
-0.220731746412155
-0.219111381159585
-0.21611805201799
-0.211888644752162
-0.206659259843916
-0.200710622172448
-0.194320696375124
-0.18773676050742
-0.18117050273848
-0.174810058188196
-0.168836153551178
-0.16342883671131
-0.158757253232113
-0.154954674054423
-0.152089396555701
-0.15014507558139
-0.149020506056836
-0.148550926386048
-0.148544074362541
-0.148818135339282
-0.149228057822298
-0.149672010632515
-0.150078694228828
-0.150384524155317
-0.150513452888457
-0.150369890245686
-0.149848357570611
-0.148855772787407
-0.14733728809103
-0.145296060757151
-0.142800238968973
-0.139974640973451
-0.13697886198539
-0.133977684890093
-0.131112950617212
-0.128486499363591
-0.126159942776434
-0.124169863754267
-0.122549891189623
-0.121347583874362
-0.120626102325337
-0.120447554618015
-0.120843475216158
-0.121783785705801
-0.123155913665532
-0.124761254712404
-0.126330501360778
-0.127555746994156
-0.128135858697686
-0.127830172910248
-0.126512483578205
-0.124213678444264
-0.121140352245886
-0.117660582456988
-0.114255989407883
-0.111447735583811
-0.109709804503636
-0.109384648825375
-0.110615227589211
-0.113305015784784
-0.117114171470737
-0.121495168060704
-0.125764406530585
-0.129198256906558
-0.131134803431399
-0.131059454160008
-0.128656132229703
-0.123816121729748
-0.116610637645288
-0.107245643706707
-0.0960235948754661
-0.0833339838509642
-0.0696826050609471
-0.055750650594427
-0.0424545288868877
-0.0309636462588026
-0.0226338944408487
-0.0188320273167277
-0.0206563720111897
-0.0285939067685328
-0.0421846504404682
-0.059786356979135
-0.0785410456150755
-0.0946325047205927
-0.103881573532322
-0.102650057325166
-0.0889237600486087
-0.0633438667391077
-0.029885698906276
0.0041242144607142
0.0288858927814326
0.0339660892397354
0.0109298843473118
-0.0436772910022214
-0.125674881820774
-0.221722510910532
-0.309666795508207
-0.361207120556066
-0.346813986353539
-0.24219286681871
-0.0349874548157429
0.269937757360348
0.648234544210945
1.05788677955306
1.44523289020194
1.75423220596629
1.93707543756654
1.9637473254747
1.82827170498061
1.5500980183365
1.17024466106615
0.743098782733541
0.325835408521131
-0.0320467331278862
-0.296730772131146
-0.454070135789536
-0.509139523945619
-0.482048841357209
-0.401502822304554
-0.297869488489746
-0.197315326989058
-0.118023030536742
-0.0688351597289721
-0.0500585078116237
-0.0557535118850565
-0.0766732662490879
-0.10308363689102
-0.126915528997614
-0.142981973804418
-0.149257141083903
-0.146409240031283
-0.136882911647067
-0.123843423990654
-0.110244907021451
-0.0981939307379011
-0.0886737868369782
-0.0815977249571117
-0.0760909647456973
-0.0708731624588473
-0.0646245884798992
-0.056258165030494
-0.0450671035790764
-0.0307574128400701
-0.0133970858812245
0.00668081628133945
0.0289900687025349
0.0529973530804547
0.0782103210815398
0.104239979594053
0.130831204582688
0.157856905501418
0.185276093550403
0.213063723748848
0.241127246798915
0.269227051863622
0.296913892795623
0.323488794047223
0.34798522472217
0.369173804810102
0.385596493018194
0.395644933044246
0.397698249745196
0.390323002472462
0.372513572177809
0.343925210778143
0.305038541443761
0.257203083160297
0.202537035320612
0.143699190493958
0.083580841166439
0.0249801449194863
-0.0296828847885314
-0.0785698401306433
-0.120526883829966
-0.155088600288989
-0.182399445634
-0.203078708363028
-0.218058127964871
-0.228419563050154
-0.235254618962738
-0.239560010195092
-0.242172755230206
-0.243739957189158
-0.24471159681595
-0.245343909494966
-0.245706301956805
-0.24569418747554
-0.245058251921786
-0.243461472982986
-0.240566370349857
-0.236140315525308
-0.230153950855995
-0.222843402063442
-0.214713283622933
-0.206472446034727
-0.198913079105047
-0.192760104883653
-0.188526560008667
-0.186409387679214
-0.186249641538669
-0.187564985841009
-0.189645084762142
-0.191686571149149
-0.192937337567756
-0.192821040171625
-0.191020078088913
-0.187505558377561
-0.182513360011686
-0.176475207646243
-0.169921552664694
-0.1633773191137
-0.157270988099548
-0.151872600999916
-0.147269082308995
-0.143377997889055
-0.139994733185631
-0.136863188760812
-0.133755980818883
-0.130546962094252
-0.127258171603233
-0.124067164129113
-0.121269692523953
-0.119204822587079
-0.118160762391215
-0.118286178000498
-0.119531417548114
-0.121636841356942
-0.124173369843112
-0.126626993564625
-0.128508140485632
-0.129460896321764
-0.129346750631194
-0.128282445673655
-0.126620992523286
-0.12487770127206
-0.12361662864883
-0.123323640252529
-0.124296782893412
-0.126580639435004
-0.12995912532354
-0.134004296576335
-0.138162966390819
-0.141853864181239
-0.14454854991509
-0.145818446110388
-0.145344457679911
-0.142899834669535
-0.138326780768301
-0.131530017858687
-0.122505125627251
-0.111406510438644
-0.0986415758725849
-0.0849590403915585
-0.0714877125566224
-0.0596838868915587
-0.0511625362025013
-0.0474155606591619
-0.0494525608319867
-0.0574296382387688
-0.070354874328723
-0.0859706583650966
-0.100906489033425
-0.111163604084243
-0.112929432573822
-0.103628009604713
-0.0830075300255056
-0.0539765705714658
-0.0228616270538137
0.00119752686332802
0.00785456260550969
-0.0119302235118402
-0.0628549848881495
-0.1423790503408
-0.23879583042471
-0.331093935312517
-0.391165470484251
-0.388419631073871
-0.296202062048037
-0.0987722636340577
0.202835931097235
0.587763873472522
1.01630314471974
1.43520825483996
1.78655605799179
2.01837661707358
2.09471559344324
2.00281881862715
1.7557521902992
1.38982227246892
0.957384848777435
0.516719121502998
0.121315160060522
-0.189027842748425
-0.393484633966044
-0.491095030878678
-0.49762953457184
-0.439696493724542
-0.347800009550801
-0.250000156310343
-0.167380904767126
-0.111889531552626
-0.0864742329264691
-0.0869657921525625
-0.104901406896342
-0.130476394179824
-0.154978701223657
-0.172329873227601
-0.179640854166677
-0.176925917199651
-0.166264168794254
-0.150744450217236
-0.1334890906335
-0.116954469874765
-0.102588224957285
-0.0908175362082654
-0.0812727108631334
-0.0731231590752185
-0.0654132799451356
-0.0573197834973833
-0.0482938902744403
-0.0380894311085272
-0.0267041594070871
-0.0142743123817152
-0.000962774085843629
0.0131275426264921
0.0279970947673748
0.0437465362041374
0.0605361098646537
0.0785245307626007
0.0978059648547866
0.118359698817707
0.14001954046355
0.162461794618618
0.185204601450163
0.207609671780224
0.228880944495489
0.248062316394557
0.264045137638125
0.275601530887907
0.281458553121649
0.28041966072388
0.271525419595439
0.254229117072224
0.228550643497307
0.19516885984907
0.155421001621575
0.1111961796874
0.0647342173412795
0.0183643068766396
-0.0257667001553387
-0.0659241090529156
-0.100932363305707
-0.130219658429943
-0.15376535275835
-0.171975947129126
-0.185526622558207
-0.195205627874988
-0.201790295232088
-0.205970055007751
-0.20831739730837
-0.20929545867957
-0.209283426002617
-0.208600005509225
-0.207510789043172
-0.206215302964958
-0.20482030830119
-0.20331383650142
-0.201556632984483
-0.199303054427917
-0.196253567369641
-0.192129768895937
-0.186754774001012
-0.180119600339589
-0.172419768240812
-0.164053531193924
-0.15558106441964
-0.147650366015083
-0.140899957336427
-0.135851569450216
-0.132808926257055
-0.131781237913072
-0.132450258286502
-0.134195484348528
-0.136182221697715
-0.137502930432152
-0.137346952739825
-0.135162421784099
-0.130771653392844
-0.124410008216235
-0.116676633882969
-0.1084084755934
-0.100509176075556
-0.0937752561264822
-0.0887600063894609
-0.0857023991198374
-0.0845293212275536
-0.0849207375932348
-0.0864138160819734
-0.0885162120868255
-0.0908011698859237
-0.0929663388531857
-0.094850839556564
-0.0964169228357182
-0.0977100909523787
-0.0988133019511078
-0.0998075914737685
-0.100745584230414
-0.101638941600711
-0.1024577374073
-0.103138970001825
-0.103601495295351
-0.103764558754491
-0.103566904030975
-0.10298364689939
-0.102038728751513
-0.100811343160201
-0.099434975152076
-0.0980878214704324
-0.0969739324782067
-0.0962959874970432
-0.0962232502209295
-0.0968610757344512
-0.0982297473531693
-0.100259128471552
-0.102801658345508
-0.105660865488196
-0.108627469508721
-0.111511827902902
-0.11416132517828
-0.1164550750679
-0.118275418458727
-0.119464112274344
-0.119778302927316
-0.118865332458342
-0.116274807364044
-0.11152049235783
-0.104193630525031
-0.0941144205885509
-0.0814919782357558
-0.0670491729962366
-0.0520629171747111
-0.0382782556591554
-0.0276777625048528
-0.0221221569355884
-0.0229150952765207
-0.0303757048201478
-0.0435201101542193
-0.05995421787272
-0.0760618141694609
-0.0875321874364138
-0.0902087649956328
-0.08115777893519
-0.059765182242986
-0.0285923672300657
0.00631466392810501
0.0359335980133093
0.0497391089462974
0.0380778364043606
-0.0048870007171299
-0.0782605006349822
-0.172313777962162
-0.26799495727734
-0.338644589005606
-0.354064171690426
-0.28647890978418
-0.11730784978727
0.156800375072429
0.520305995144337
0.938770020784784
1.36299673113472
1.73680665127183
2.00695476676788
2.13308474880128
2.09551234201517
1.89908199213863
1.57221504574326
1.16135362902672
0.722054813836243
0.308752419688456
-0.0345344295669611
-0.280599360204065
-0.421438966751236
-0.466585398924361
-0.438295854948646
-0.365113283730172
-0.275437502067031
-0.19244700794785
-0.131149554996866
-0.0977105224531577
-0.0906808199231318
-0.103423291801522
-0.126945816398735
-0.1524552064222
-0.173175567712358
-0.185245191142197
-0.187747468232571
-0.182099267867631
-0.171098015419207
-0.15792303196564
-0.145319737050558
-0.135096310656133
-0.127960075086486
-0.123638129272351
-0.121177589111702
-0.119308618533884
-0.116771989494887
-0.112549620892244
-0.105977520302266
-0.0967545757762489
-0.0848811033407973
-0.0705663337348579
-0.0541370410472077
-0.0359662087611288
-0.0164273480750934
0.00412890335702881
0.0253828123150643
0.0470444886254652
0.0688474129525307
0.0905374660526307
0.111856286957344
0.132516781781202
0.152169392320773
0.170361232421467
0.186496272006698
0.199811172893835
0.209384506182182
0.214193841333995
0.21322490890188
0.205622000738056
0.190853679578224
0.168858221609409
0.140133037076447
0.105742317480974
0.0672345410582811
0.0264812999791887
-0.0145340678600843
-0.0539395594492031
-0.090170005285205
-0.122103654534463
-0.149122565267213
-0.171095816785766
-0.188299254539207
-0.201295386107593
-0.210800312088204
-0.217561412806023
-0.222262176620268
-0.225462019334563
-0.227571341916969
-0.228856301308605
-0.229464071742399
-0.229457825661077
-0.228851220915131
-0.227634705364293
-0.225790127597074
-0.223295062591164
-0.220122229056168
-0.216240694149632
-0.211623748967572
-0.206264469989604
-0.200195881212833
-0.193509870075448
-0.186368410958697
-0.179002149868354
-0.171694186194515
-0.164750002343067
-0.158457535792086
-0.153044313723494
-0.148640782612699
-0.145259116208527
-0.142793879834629
-0.141045478021743
-0.139761196124643
-0.138684017073943
-0.137597756594052
-0.136358860706288
-0.134909666069762
-0.133273233185886
-0.131534052829453
-0.129810855880828
-0.128227417234856
-0.126885401159354
-0.12584117415084
-0.125087533618299
-0.124542249292372
-0.124047295892202
-0.12338332811588
-0.122301400537706
-0.120568483275057
-0.118017449692334
-0.114588903020443
-0.11035325777895
-0.105506668828041
-0.100341623464538
-0.0951994559508051
-0.0904156485477082
-0.0862690641482905
-0.0829439543007399
-0.0805099073434632
-0.0789211132898044
-0.0780334812656456
-0.0776365446891948
-0.0774959809790028
-0.0774008858823972
-0.0772075098230273
-0.0768691859916404
-0.0764425292346246
-0.0760640805523068
-0.0758994787425163
-0.0760770677270366
-0.0766258015035981
-0.0774390795573441
-0.0782793386900941
-0.078824221514584
-0.0787390355498866
-0.0777488857065027
-0.0756829513178548
-0.0724743257169808
-0.0681175626959488
-0.06260471511569
-0.0558716216536296
-0.0477856683857282
-0.0381946663652151
-0.0270368573045677
-0.0144887074179242
-0.00110593215091235
0.0120985664812995
0.0236919609032339
0.0320037669434558
0.0354467251465263
0.0329287859000659
0.0242727057026543
0.0105368912882094
-0.00587319324086803
-0.0213953357551133
-0.0318504064889087
-0.0333086561911128
-0.0231686566332683
-0.00124012933085606
0.0294528384958163
0.062457444750035
0.0885263888974193
0.0972208243246148
0.0793792990101216
0.030078183410759
-0.0485488981005783
-0.145427789551723
-0.240377735172321
-0.306198422471397
-0.31307216497489
-0.2347203079478
-0.0551361448937914
0.225696699036883
0.588723868827771
0.99656672569552
1.39844010096981
1.73853670999777
1.96621788593733
2.04577911165308
1.96355236306529
1.73067720183409
1.38087267995901
0.963722430845301
0.535049917566917
0.146625284943461
-0.162485550892575
-0.371166477911083
-0.477309418513047
-0.494995311371312
-0.448981212021256
-0.368116500889473
-0.27927142666101
-0.202944227543112
-0.15110316714135
-0.127210456692713
-0.127913788084885
-0.145652773739033
-0.171413733533016
-0.197024745381849
-0.216634725715759
-0.227285720699101
-0.228704463803253
-0.222572583728001
-0.211577474008219
-0.198512415355896
-0.185611999925708
-0.174207241047506
-0.164690357150019
-0.156710763266725
-0.149490235072618
-0.142146008368256
-0.133937945768245
-0.124397730609634
-0.113340893244853
-0.10079474830971
-0.0868903148451959
-0.07176358738378
-0.0554959519031764
-0.0381026128401249
-0.0195592517995906
0.000153560257156349
0.0210093203748251
0.0429115195438014
0.0656889866389678
0.0891031913346179
0.112854826719785
0.136577905788553
0.159816058986984
0.181985271037584
0.202336450491523
0.21993674385218
0.233688387876143
0.24239766907749
0.244895305925281
0.240195821425086
0.227670653523537
0.207201238720043
0.179276796082562
0.145008634773205
0.106048199891839
0.0644166441693594
0.022273906685596
-0.0183308442391241
-0.0556818908478745
-0.0885544976736672
-0.116284818977392
-0.138749558894611
-0.15627131152216
-0.169478196657993
-0.179150889728487
-0.186086590176339
-0.190999909288165
-0.194468251478793
-0.196917663668032
-0.198637379676826
-0.199808638485332
-0.200535096763094
-0.200866590345352
-0.200813362376875
-0.200352561300695
-0.199431533210907
-0.19797275394156
-0.19588381324855
-0.193073804274913
-0.189475563338447
-0.185071617479899
-0.179920233793493
-0.174176383574732
-0.168100860305519
-0.162050162245447
-0.15644165278687
-0.151694009537329
-0.148151284325602
-0.146007186950889
-0.145250744644569
-0.145652340672967
-0.146799622252948
-0.148178288855593
-0.149278367450687
-0.149697878486246
-0.149216275134234
-0.147819434652585
-0.145672694168329
-0.143053247029808
-0.140263374834868
-0.137548865149302
-0.13504284112896
-0.132746548413284
-0.130548347337061
-0.128272560056499
-0.125742683311858
-0.12284041426304
-0.119544060329973
-0.115936858399669
-0.11218529568898
-0.108496396163195
-0.105068122912301
-0.102047119605971
-0.0995036815919982
-0.0974274749104628
-0.0957416803279436
-0.0943293582161037
-0.0930640738426088
-0.0918369083575336
-0.0905736995203036
-0.0892393919082553
-0.0878300874486651
-0.0863569455691496
-0.0848286015900018
-0.0832392851456416
-0.0815676266781904
-0.0797866251022234
-0.0778802305897226
-0.0758588451571055
-0.0737662785620935
-0.0716742480074523
-0.0696658790806855
-0.0678145090283181
-0.0661661283878182
-0.0647319731505409
-0.0634929510263184
-0.0624119470634912
-0.0614458948506249
-0.060548452582181
-0.0596570267568646
-0.0586644573099117
-0.0573840160119627
-0.0555232899918454
-0.0526849492940675
-0.0484087413445484
-0.0422596696235169
-0.0339541961060014
-0.0235024718420551
-0.011333341529535
0.00163675682929923
0.0140272243253245
0.0241326639610629
0.0301797684179484
0.0306758404725908
0.0247961212089566
0.0127361440713592
-0.0040563862247991
-0.02285577888976
-0.0399088993542252
-0.050996578956053
-0.0522808608936522
-0.0413328838267214
-0.0181484266698825
0.0141139620946215
0.0489642259991596
0.077227716880153
0.0886208091986723
0.0741542645074202
0.0290022850135047
-0.044772942196876
-0.136408416786306
-0.226294012744573
-0.288013085760351
-0.292634803381494
-0.214720019258932
-0.0388990107072315
0.234533937695281
0.586610747407438
0.9804538704219
1.36617830872763
1.68924837602453
1.90063150950246
1.96648890024974
1.87511677279716
1.63943946624225
1.29441359069065
0.889953022507562
0.481085815499533
0.117691396680448
-0.163847468853727
-0.345388782525117
-0.427529386074616
-0.426316392085697
-0.367462888941447
-0.2797308606059
-0.189038813089276
-0.114389185458804
-0.0660818896554458
-0.0460762778243893
-0.0499249954963914
-0.0694957630876623
-0.0957150342960924
-0.120752134375081
-0.139330373971141
-0.14912083257849
-0.150384035391272
-0.145143552797115
-0.136201347755795
-0.126256244320006
-0.117294029238387
-0.110312072977449
-0.105349302170507
-0.101730716753938
-0.0984106775698364
-0.0943077643926978
-0.0885560048385884
-0.080638825662767
-0.0704096781311065
-0.058027941062919
-0.0438480288926891
-0.0282968630473395
-0.0117658308096849
0.00546659506233478
0.0232733647610954
0.0416761938975395
0.0608048079857179
0.0808268273419973
0.101862070047747
0.123897553482955
0.146718319977202
0.169864916238088
0.192622620628014
0.21404230240099
0.232989539346418
0.248217593510236
0.258460073632606
0.262539048839907
0.259482858358693
0.248644596826188
0.229807890868032
0.203262774131773
0.169833642363048
0.130845492711488
0.0880241373279739
0.0433387366195624
-0.0011926374892963
-0.043705084044574
-0.0826648526676995
-0.116995910025671
-0.146137702165725
-0.17002940751794
-0.189028755876192
-0.203784424374106
-0.215088459466959
-0.223737352951745
-0.23042615419654
-0.235689945533496
-0.23989389155054
-0.243260920548437
-0.245918693535765
-0.247946853041756
-0.249410873098136
-0.250377101065433
-0.250911212215022
-0.251066978055479
-0.250873449144942
-0.250327033998674
-0.249391746240583
-0.248007588131854
-0.246104953836191
-0.243622499080361
-0.240526401991165
-0.236829075085287
-0.232604479332739
-0.227995729226512
-0.223210123899028
-0.218498581484337
-0.214120976857577
-0.21030445355417
-0.207205521606419
-0.204886430959264
-0.203311886461454
-0.20236567657622
-0.201880934036095
-0.201674611711384
-0.201577137501371
-0.201451447591857
-0.201199940047874
-0.200761507003412
-0.200102730909833
-0.199207576280705
-0.19806892477283
-0.19668366418256
-0.195051452646855
-0.193176342246964
-0.191070213993736
-0.188756943945789
-0.18627596134711
-0.183683550804189
-0.18105045155144
-0.17845532962934
-0.175975245613151
-0.173675512271983
-0.171601507037057
-0.169773906811353
-0.168187298487335
-0.166811436137922
-0.165594975114016
-0.164472409499271
-0.163374906198205
-0.162244439209797
-0.161048880535657
-0.159794534689492
-0.158532522306662
-0.157356372118983
-0.156389802316268
-0.155765492115736
-0.155597384428544
-0.155950780995429
-0.156816116572377
-0.158092950686112
-0.159589023277745
-0.161034762135579
-0.162108026407185
-0.162460175013372
-0.161735361712506
-0.159580781044145
-0.155654317318781
-0.149643582004462
-0.141312050619399
-0.130580830731987
-0.117638779498641
-0.103053677070214
-0.0878406749264908
-0.0734396215260483
-0.0615653474358533
-0.0539237818400644
-0.0518251221953724
-0.0557634770559018
-0.0650612068907844
-0.0776883183529783
-0.0903571960916204
-0.0989568987881071
-0.0993284356791874
-0.0882973678744803
-0.0647848704882628
-0.0307340657147973
0.00845684177073842
0.0442801864277665
0.0664174267501864
0.0649643276054225
0.0332929900315563
-0.0290098504037124
-0.113889297045392
-0.204060754581806
-0.274374746661403
-0.295534080786722
-0.239800556241961
-0.0876915260946601
0.165831214023871
0.507346901958431
0.904519868044755
1.30985587754514
1.66829897033432
1.92724919018333
2.04682446902168
2.00797304419856
1.81646357883723
1.50174771887068
1.11095093941882
0.699456280024906
0.320356584224432
0.0152259886848162
-0.191838038081682
-0.295939082884913
-0.309049882128292
-0.254744064275352
-0.161621079252824
-0.0570673441008426
0.0373944721410928
0.108529214250954
0.151581731258601
0.168729182199078
0.166552498328159
0.153316494033614
0.136690195577435
0.122276613137701
0.113042782355261
0.109516305569783
0.110482243358019
0.113879518434579
0.117639050651366
0.120293376311724
0.121285356922358
0.1209861803782
0.120487493048392
0.121258020883581
0.124757199985614
0.132085226198611
0.143728205026077
0.15943450427938
0.178236902306736
0.19861481108071
0.218770743071709
0.236975494098772
0.251919834982165
0.263001338104474
0.270478251270851
0.275441541895261
0.279591035123411
0.284846066773403
0.292864438533601
0.304573325238673
0.319822538416227
0.337250441226145
0.354408986088703
0.3681361305184
0.375104720560601
0.372431625416635
0.358212645152566
0.331865423535046
0.294212549521327
0.247306156796566
0.194060544764216
0.137798479764985
0.0818192197522254
0.0290665657699051
-0.0180711614328776
-0.0578422621330202
-0.089136472543833
-0.111463762766267
-0.124944899266705
-0.130325938652336
-0.129000035191612
-0.12299793880088
-0.114901092170931
-0.107641956982906
-0.104183526514956
-0.107107457249084
-0.118178078590182
-0.137976400816778
-0.165703513150214
-0.19922993789474
-0.235418074985517
-0.270679869377733
-0.301668947269912
-0.325963860653222
-0.342589337560917
-0.352249247934524
-0.357203084458982
-0.360795082797723
-0.366725763050501
-0.37822208587852
-0.397297045403372
-0.424278358982067
-0.457724946047925
-0.494751189373499
-0.53167038585107
-0.564784765352951
-0.5911172985962
-0.608909404427123
-0.617786433934236
-0.618591456864831
-0.612975053939769
-0.602879897978136
-0.590064354530744
-0.575775241539582
-0.560623126989136
-0.544654354890626
-0.527568688650001
-0.509007880490618
-0.488837942026387
-0.467360797749471
-0.445412776788571
-0.424332564014132
-0.405805886532946
-0.391615926941093
-0.3833455847653
-0.382088190727972
-0.38822426157366
-0.401311152877366
-0.420110608141181
-0.442750506633778
-0.466988557486059
-0.490524730662647
-0.511301356329745
-0.527736717588743
-0.538856882259773
-0.544315501754052
-0.544315304394448
-0.539462104826103
-0.530589228885186
-0.518587739624762
-0.504268919794579
-0.48827401079929
-0.471035055176757
-0.452781320912129
-0.433579075517521
-0.413389037397654
-0.392125628177152
-0.36970436301062
-0.346067407156637
-0.321182156419955
-0.295013759084787
-0.267479461108341
-0.238399257999104
-0.207461700631618
-0.174224111868293
-0.138161978657575
-0.0987730283070214
-0.0557287890838758
-0.00905250111183334
0.0407103379046088
0.0923711530092707
0.144071543329448
0.193387553046667
0.237583614979725
0.274006718456118
0.300577210151184
0.316297665463923
0.321671464023812
0.318905686983915
0.311778837176357
0.305093669337026
0.30371581765238
0.311315001321389
0.329055279837535
0.354585847516417
0.381719364104561
0.401114770624735
0.402093811073615
0.375436414825762
0.316675639583567
0.229130616535959
0.125768918508323
0.0290589810693859
-0.0316988620541899
-0.0255097805631546
0.073459514265327
0.2787057126025
0.585682224051277
0.969292883688025
1.38574773383072
1.7789436456238
2.09034649803849
2.2703146238438
2.28824448849419
2.13905111943714
1.84433099180653
1.44788532279267
1.00672613130149
0.57981067400574
0.217215373249372
-0.0478443718793986
-0.202670162443347
-0.254151252755151
-0.224112009812436
-0.142531583831628
-0.0404451011635967
0.0559271763473758
0.128852709865837
0.170272494338562
0.180809360784703
0.167303174527359
0.139726173002791
0.108260511945852
0.0810985195814973
0.0632394386356003
0.0562818946679454
0.0590036399918512
0.0684061190055133
0.0808821540038482
0.0932220655200069
0.103276959075896
0.110215225828349
0.114411761753524
0.117080510875068
0.119791905111575
0.124009820859772
0.130747745030997
0.140395103178584
0.152716394016808
0.166988617153959
0.182221676418199
0.197401762247861
0.211705320563724
0.2246461287224
0.236135951604495
0.246457129915166
0.256160887664943
0.265916321656346
0.276340937206807
0.287843950806231
0.300508467405256
0.314028714601419
0.327706024313993
0.340496221302515
0.351095438503061
0.358052232308079
0.359898475485226
0.355295040786702
0.343186934851309
0.322955709447724
0.294547668192204
0.25854986166671
0.216187199884098
0.169225527356968
0.119785321786445
0.0700931168424364
0.0222152915935458
-0.0221750363457065
-0.0619553081094253
-0.0966116988246001
-0.126198622157183
-0.151220479090898
-0.172468714313984
-0.190849794568749
-0.207234271065948
-0.222346741988123
-0.236704723970772
-0.250603972761622
-0.264140369266537
-0.277254857646703
-0.289788061637391
-0.30153417347435
-0.312287799823376
-0.321881086943758
-0.330210978750242
-0.337257901532541
-0.343097500479708
-0.347906144995329
-0.351959007216985
-0.355617534515237
-0.359302601821715
-0.363451990297979
-0.368466212364922
-0.374652890444629
-0.382183227064896
-0.391072100072788
-0.401186676518672
-0.41228024264761
-0.424041290656643
-0.436144642086774
-0.448292414473363
-0.460237901826996
-0.471793131525709
-0.482827424194548
-0.493266357941117
-0.503097245534024
-0.512380529711346
-0.521259645930835
-0.529957949221461
-0.538752507676468
-0.547921743017506
-0.557675240340678
-0.56808482179356
-0.579040522810475
-0.590250191574543
-0.601288410470154
-0.611684656793691
-0.6210285038321
-0.629065405188524
-0.635760525173959
-0.641317407359435
-0.646149239024493
-0.650810048839415
-0.655899849067742
-0.66196134955555
-0.669386853898055
-0.678352387847175
-0.688791618151364
-0.700414701395113
-0.712768023972156
-0.725321706544976
-0.737564247349251
-0.749079044047878
-0.759577945058754
-0.768875268946467
-0.776802726321538
-0.783087641487382
-0.787235825209451
-0.788467223848101
-0.785740601752362
-0.777873195629421
-0.76372216606241
-0.74236426893246
-0.713205753063301
-0.675982293801581
-0.630658215071508
-0.57728208577684
-0.515878179871373
-0.446438972309375
-0.36904040529049
-0.284050839283368
-0.192368983469006
-0.0956164480493248
0.00377717500835228
0.102636073836667
0.197261912959768
0.283810751879324
0.358788896609882
0.419604616115903
0.465083596889072
0.495834727285637
0.514350756065676
0.524756580663723
0.5321819479726
0.541830049349597
0.557918503813931
0.582748335080079
0.616167152470137
0.655608141391395
0.696720595741503
0.734420669543973
0.76406189167556
0.782406635542957
0.788169924825702
0.782056804275594
0.766361772969344
0.744297931200709
0.719257220357409
0.694178378433972
0.671136930981528
0.65119644859414
0.634493597087038
0.62048473689344
0.608263904192204
0.596868395903788
0.585511435390097
0.573712115161265
0.561322297271977
0.548472217083427
0.535468254881652
0.522677825346983
0.510429919839609
0.498948997020869
0.488328188412339
0.478537915940453
0.469459561882106
0.460931165859188
0.452792733139418
0.44492160610377
0.437252351495685
0.429779795587217
0.422547497992064
0.415626604049919
0.40909134871093
0.402997414511403
0.397368047662033
0.392190708920231
0.387424563666966
0.38301671797607
0.378923114190315
0.375128723426983
0.371661406395828
0.368594708965255
0.366036848927055
0.364106010736589
0.362895469323888
0.362435517839071
0.362661917572605
0.363401652838681
0.364385259649864
0.365290466497588
0.365814670602847
0.365765044462556
0.365146667920973
0.364223242285364
0.363523942217758
0.363775634374026
0.365752773212066
0.370056738628707
0.376858998264106
0.385662971171643
0.395151262694537
0.403181756235012
0.406974094864161
0.403488265855633
0.389946307678093
0.364399402128245
0.326211848878832
0.276335003212036
0.217284448852396
0.152805257744291
0.0872919653940067
0.0250938447999485
-0.0301399748439224
-0.0759426170627005
-0.111260665824258
-0.136422231060165
-0.152885985377195
-0.162849844154317
-0.168807956688988
-0.173134781694575
-0.177753973328645
-0.183926232627086
-0.192169317585127
-0.202306139884383
-0.213622234738095
-0.225100669526074
-0.235690670766799
-0.244558355553033
-0.251268836866091
-0.255862777121163
-0.258815976426353
-0.260899990056222
-0.262984767039812
-0.265833957494916
-0.269939186749806
-0.275425460343869
-0.282041468400842
-0.289229997303679
-0.296257558978531
-0.302371396483182
-0.306949002165934
-0.309610887861494
-0.310278823868371
-0.309174730483547
-0.306766724610114
-0.303677241723952
-0.300573109248017
-0.298058644600094
-0.296590699422876
-0.296429718577511
-0.297633356310112
-0.300089304724135
-0.303574202609529
-0.307819845891288
-0.312568748191011
-0.31760713384928
-0.322771655623741
-0.327934286614635
-0.332976463663091
-0.337766667522493
-0.342153373837333
-0.34597811663597
-0.349104400923114
-0.351451228296444
-0.353017535618555
-0.353886457808568
-0.354204792215885
-0.354140556522175
-0.353827070056554
-0.353304556492237
-0.352471337984799
-0.351057895112216
-0.348637808522038
-0.344687154293316
-0.338695657223889
-0.330318735691648
-0.319543027267707
-0.306824950969493
-0.293157814318096
-0.280030673881019
-0.269260927996538
-0.262708724281346
-0.261908843772577
-0.267678512708431
-0.279773400732336
-0.296668401270169
-0.315536372581745
-0.332486487138172
-0.343098799458456
-0.343244974794527
-0.330112922995291
-0.303262987137282
-0.265457867129406
-0.222961770354393
-0.185031811382507
-0.162448551602071
-0.16514861147333
-0.199294357882167
-0.264379565581996
-0.351145851825123
-0.441095404254407
-0.508178237175532
-0.52280162301234
-0.457717466568738
-0.294725022350685
-0.0306672239182483
0.318917586245517
0.719790336282896
1.12318734545636
1.47368820684096
1.71928396905561
1.82147425771371
1.76307804381569
1.55189440697929
1.21929250418153
0.814013354132624
0.392625791573648
0.00887868171223616
-0.295609729138741
-0.49735166125671
-0.592678676419591
-0.595270860757483
-0.530648591908945
-0.429289782573393
-0.320071957503603
-0.225356902123299
-0.158415858533665
-0.123236001873589
-0.116219616555205
-0.12898384761882
-0.151412359628732
-0.174257072695405
-0.190855979526823
-0.197830930015114
-0.19488246670113
-0.183962790628804
-0.168170510816121
-0.150684842871663
-0.133969499393249
-0.119359871480197
-0.107032283797593
-0.096265983906536
-0.0858614151490942
-0.0745740177053846
-0.061452489026864
-0.0460193494301683
-0.0282841167483431
-0.00862264307767701
0.0124175396436084
0.0343191673796976
0.0567483464826238
0.0796249873056621
0.103103026059302
0.127475880688332
0.153038107344841
0.179941353298667
0.208081576548892
0.237044791850775
0.266120995888464
0.294374806345988
0.320744633388801
0.34413724782705
0.363493568120441
0.377819862403657
0.386197648811662
0.387796823770028
0.381915452174805
0.368057380046467
0.346040852580614
0.316114421516969
0.279046308336703
0.236153540247315
0.189248066603515
0.140495691024254
0.0922045432712131
0.0465773358274637
0.00547173159462231
-0.0297866291415393
-0.0585043999291898
-0.0806195598214645
-0.0966080235224016
-0.107326704157081
-0.113832515572354
-0.117215213736712
-0.118469794669527
-0.118417074054052
-0.11766663446133
-0.11660993994672
-0.11543316938444
-0.114144718785637
-0.112616282067779
-0.110636643240432
-0.107974538850743
-0.104443160117068
-0.0999559386785322
-0.094562748353606
-0.088458567703881
-0.0819626789212293
-0.0754735883723763
-0.0694101560622687
-0.0641509152376179
-0.0599813694834729
-0.0570551979376346
-0.0553721470859584
-0.0547739089706407
-0.0549586670219268
-0.0555139467149673
-0.055965617504894
-0.0558389085935373
-0.0547254120373831
-0.052347900644856
-0.0486123449552249
-0.0436350315404379
-0.0377343901925527
-0.0313835931428245
-0.0251303399505392
-0.0195007710206557
-0.0149102640320695
-0.0116019426033753
-0.00962496887130605
-0.00885304010649655
-0.00903319360794634
-0.00984879434905202
-0.0109796994562411
-0.0121469210985542
-0.0131366191726762
-0.0138055356543539
-0.0140743280701135
-0.0139162933819721
-0.013347956560602
-0.0124259900616681
-0.0112521196640599
-0.00998409570188345
-0.00884699765937492
-0.00813610870247914
-0.00820173251575352
-0.00940915434823379
-0.0120741528134034
-0.0163845854749443
-0.0223278564934142
-0.02964811045687
-0.0378529383574943
-0.0462773819976208
-0.0541962440692223
-0.0609592228685563
-0.0661125940338716
-0.0694703377657911
-0.0711088395663893
-0.0712815016742134
-0.0702776791541174
-0.0682753272638263
-0.0652482266809071
-0.0609790484498179
-0.0551978999441563
-0.04781985276154
-0.0392091381522575
-0.0303700224978944
-0.0229685695197617
-0.0191284614494874
-0.0210075947050086
-0.0302309673269393
-0.0473089497326329
-0.0711940956209314
-0.0991193606219253
-0.126819060028762
-0.149168040332559
-0.161191602915026
-0.159306143584222
-0.142559422773902
-0.113568656518097
-0.0788303118573966
-0.0481244292838616
-0.032875530570571
-0.043558466161943
-0.086519850403815
-0.160863272847601
-0.256236058172038
-0.352369756396189
-0.421002088700579
-0.430334921289132
-0.35152866573514
-0.166048356214235
0.127832638071399
0.511193894342909
0.94473908140399
1.37375655985165
1.73718104593057
1.97901002855798
2.05953227660904
1.96366895932205
1.70431589758786
1.31978756349559
0.865968746228738
0.405130265786997
-0.00585299387003635
-0.325155286396555
-0.53155595100292
-0.625143508034714
-0.623677331039098
-0.556066356824038
-0.45485263081582
-0.349476788466977
-0.261587294772708
-0.202946847217127
-0.175801041227939
-0.175066351577051
-0.191446251205071
-0.214593934726657
-0.235644034028664
-0.248739598442151
-0.251490676029626
-0.244546490878226
-0.230607206953363
-0.213238543934713
-0.195802192437457
-0.180709833227862
-0.169084758587375
-0.1608039043095
-0.15481562550233
-0.149593594926948
-0.143592012071356
-0.135600701646293
-0.124945831830691
-0.111529110307205
-0.095735339275826
-0.0782594124285217
-0.0599080214289865
-0.0414218129106866
-0.023346882649356
-0.00596687680458372
0.010707064219245
0.0269000495243906
0.0430059657834205
0.0595032012222296
0.0768645138783911
0.0954676084049293
0.115509665210161
0.136928496451463
0.159335949086411
0.181974669289434
0.203714340299588
0.223103971814255
0.238490063913293
0.248196989754216
0.250749363246314
0.245101636501862
0.230832428536323
0.208262840912611
0.178469358490693
0.143180804866742
0.1045717351259
0.0649867824674007
0.0266459529957353
-0.00861535502023215
-0.0395271213939934
-0.0654607679690333
-0.0863975766353304
-0.102806966883867
-0.115466910357583
-0.12526599477339
-0.133025463125512
-0.139370352493968
-0.144664090482494
-0.149004936658183
-0.152270257181157
-0.154188890147438
-0.154422873714542
-0.152644967870612
-0.148604247692335
-0.142176277455247
-0.133396549632966
-0.122476559681105
-0.109801621801588
-0.0959088592579278
-0.081443827451214
-0.0670962488161755
-0.0535197302974789
-0.0412460620067232
-0.0306098816001055
-0.0217021273275526
-0.0143690247462196
-0.00826622797772769
-0.00296533002232217
0.00190568328766837
0.00652120558769654
0.0107573751294146
0.0141697000487897
0.0160688915301645
0.0156865747839029
0.0123925400111197
0.00590447347305669
-0.00357168909332882
-0.0153151238598865
-0.0281890565172671
-0.0408409146685725
-0.051951582456379
-0.0604705977637415
-0.065781746787059
-0.0677661026824804
-0.0667595956118021
-0.0634303617204916
-0.0586189156429071
-0.0531869108065011
-0.0479085762886829
-0.043418262742701
-0.0402058020015191
-0.0386363930183674
-0.0389686222894113
-0.0413532891676326
-0.0458117817704797
-0.0522076156652592
-0.0602314674790773
-0.06941639393742
-0.0791888378185566
-0.088948180899366
-0.0981581848745626
-0.106430050166094
-0.113578591611554
-0.119638637921244
-0.124836962438808
-0.129524714039645
-0.134084623986438
-0.138833910054729
-0.143945966480935
-0.149410725713834
-0.155044874615004
-0.160549968458926
-0.165602199590077
-0.169947389250611
-0.173473239317145
-0.1762388225615
-0.178455299173052
-0.180426587590169
-0.182469491236214
-0.184836749928166
-0.18766308418184
-0.190945365058352
-0.194557049365138
-0.19828752673845
-0.201891494216663
-0.205133077748174
-0.207814034456554
-0.209783269923332
-0.210932941077392
-0.211191266396974
-0.210521936192735
-0.208935074901532
-0.206507444295756
-0.203403310532897
-0.199884809657872
-0.196302508137749
-0.193061983392339
-0.190568646160974
-0.189159024108229
-0.18903120789114
-0.190189202796998
-0.192414653092924
-0.195274293162646
-0.198163019468086
-0.200372883526551
-0.201171451806649
-0.199872634687015
-0.195890133141137
-0.18877475567494
-0.178246254080459
-0.164233187167215
-0.146928824204144
-0.126858474369487
-0.104937718785495
-0.0824879720923875
-0.0611725450048641
-0.0428274085677841
-0.0291853620582282
-0.0215241948222999
-0.0203001862617018
-0.0248501718847232
-0.0332530567141243
-0.0424318810389921
-0.0485482944247406
-0.0476913605850275
-0.0367933888096656
-0.0146246849246714
0.0173562951664311
0.0545659864991849
0.0895286155451331
0.112947150899919
0.115612064926785
0.090919228449396
0.0375261702830673
-0.0385116925284219
-0.122840902260901
-0.193729373233619
-0.225047448434089
-0.191047652583853
-0.0721273380833346
0.139676276398335
0.436859488149733
0.795460046523185
1.17746524478665
1.53637130908531
1.82485711910456
2.00301020345435
2.04541683232679
1.94569264767184
1.71757165947532
1.39235187529254
1.01320431951263
0.627489002990179
0.278659609765753
-0.000564778222616358
-0.192407931839871
-0.294954564968389
-0.319938598711388
-0.288276815033173
-0.224623434572044
-0.152240351546866
-0.0891780818919954
-0.0462842440436951
-0.0270563425980158
-0.0289590136031463
-0.0456016224211936
-0.0691302620101038
-0.0922939224363084
-0.109839480517379
-0.119112165527501
-0.119935026753294
-0.113977140595466
-0.103880016522357
-0.0923984578817782
-0.0817449139789058
-0.073232278852161
-0.0672168023015542
-0.0632720978506934
-0.0604890671391817
-0.0577956121137057
-0.0542156697243796
-0.0490258205557865
-0.041805893142964
-0.032407727676648
-0.0208792408459692
-0.00738011715474568
0.00788475743988313
0.0247021655628777
0.0428591432768581
0.0621339094612007
0.0822830896596444
0.103036622514685
0.124104997463443
0.145195291030231
0.166025733221173
0.18632569565615
0.205810604163552
0.224129369502222
0.240793588000206
0.255109460760927
0.266140873396173
0.272731506252488
0.273603089073506
0.267527154894798
0.253544098183518
0.231183953280809
0.200635620438953
0.162819072092501
0.119336660728478
0.0723083574672274
0.0241225737334254
-0.0228485711947945
-0.0665167096816401
-0.105282892615285
-0.138153536025491
-0.164758623671019
-0.185282679684814
-0.200332617305927
-0.210773452185705
-0.217563180067019
-0.221613035270213
-0.22369027293604
-0.224369359441658
-0.224026636178253
-0.222866004274386
-0.220960713216953
-0.218298724522153
-0.21482443286605
-0.210475002471928
-0.205212797421872
-0.199055358574293
-0.192101925525852
-0.184552577003138
-0.17671454781396
-0.168991086359313
-0.161851051552017
-0.155781099971811
-0.151225400260705
-0.148519786818517
-0.147828779036147
-0.149095742029716
-0.152018063831625
-0.156058504727846
-0.160498963950649
-0.164533874548536
-0.167389624480443
-0.168447483946307
-0.16734399117774
-0.164026351670363
-0.158750154627693
-0.152019421977797
-0.144481168019932
-0.136795981864235
-0.129511497528212
-0.122965956067746
-0.117243391250653
-0.112190468056755
-0.107489984558231
-0.102771576984653
-0.0977306452504124
-0.0922250308064974
-0.0863260115633135
-0.080313277359779
-0.0746184244097673
-0.0697339375516779
-0.0661117716083179
-0.0640762081168545
-0.063769815554208
-0.0651409451671639
-0.0679697011003709
-0.0719205275240667
-0.076605844176249
-0.0816465451883629
-0.0867196457104844
-0.0915882379761075
-0.0961124502143585
-0.10024229326012
-0.103995231562969
-0.10742364068599
-0.110579297694338
-0.113482452178621
-0.11610146536557
-0.118346283205647
-0.120076209013316
-0.121120130605222
-0.121305650920148
-0.12049245885983
-0.118604633361545
-0.115656204092609
-0.111764330540705
-0.107145558800427
-0.102093387182224
-0.0969396125704997
-0.0920064520456195
-0.0875595898844837
-0.0837727005064919
-0.0807111886499072
-0.0783377583285478
-0.0765368822520778
-0.0751511457875161
-0.0740206464398269
-0.0730170239634577
-0.0720657412794102
-0.0711532479318618
-0.0703188270565468
-0.0696336222294375
-0.0691714452552728
-0.0689776008679593
-0.0690428619137936
-0.0692891906451687
-0.0695713804778354
-0.0696948662809373
-0.0694456647085942
-0.0686252494519347
-0.0670824562477891
-0.0647366954356593
-0.0615908409284008
-0.0577360688193337
-0.0533526398138053
-0.0487093202846319
-0.0441603519687975
-0.0401342626094692
-0.0371058137739888
-0.0355435176706779
-0.0358315991080186
-0.038175703871297
-0.0425123644235137
-0.0484486422653123
-0.0552569267898403
-0.0619396061874552
-0.0673614540993247
-0.0704288918682321
-0.0702804539479043
-0.0664464077355575
-0.0589398977607461
-0.0482568818366693
-0.0352844496384917
-0.0211412609697684
-0.00699273655197018
0.00610918894881007
0.0173200981914803
0.0260118980743553
0.0317085500002288
0.0339903651133892
0.0324252887668843
0.0265823435506199
0.01615842455341
0.00121051303514832
-0.0175593813559155
-0.0385581845116601
-0.0592075266498502
-0.0761074420314702
-0.0855231377838545
-0.0841854346403326
-0.0702970008435083
-0.0445336121004799
-0.0107505379764981
0.0239194148567781
0.0498306836589443
0.0565533053783768
0.0354288110358201
-0.0174612272891385
-0.0985809984235502
-0.195287873077516
-0.28599765379018
-0.342636431844899
-0.335341518810693
-0.238745024852167
-0.0385889454078079
0.262923343992101
0.644577862756493
1.06743173433523
1.48008483488839
1.82709934458265
2.05888423447528
2.14093001328127
2.06037277413896
1.82844321378891
1.47825960770263
1.05844948846938
0.624014894118578
0.226470125142211
-0.0946021603687368
-0.316869797167499
-0.436608667800389
-0.466286594283112
-0.429422871711338
-0.354245942093439
-0.267687496732695
-0.190889626216858
-0.136832140563161
-0.110096929338641
-0.108322871770562
-0.124647820434903
-0.15039314788644
-0.177377616348565
-0.199479002492549
-0.213318315227099
-0.218161057448044
-0.215274507504007
-0.207036052194206
-0.19606363851001
-0.184559581080696
-0.173954988339332
-0.164844633146147
-0.157133783548162
-0.150289725909009
-0.143598999319686
-0.136364283592569
-0.128015776174676
-0.118146205518961
-0.106498048888278
-0.0929347140696985
-0.0774184046025115
-0.0600028983355617
-0.0408363625839774
-0.020162190022509
0.00169398277379023
0.0243567587784492
0.0474493838127508
0.070645575145838
0.0937070365823488
0.116489556980624
0.1389074583859
0.160857745030575
0.18211869336851
0.202248963547479
0.220518557288691
0.235899397166133
0.247131183382407
0.252860745519237
0.251835042127315
0.243113624775711
0.226258999167523
0.201464830327003
0.169592675563249
0.132106059740679
0.0909121645466697
0.0481406635389978
0.00590101928762074
-0.0339390537469006
-0.0699195848995085
-0.101078902460115
-0.126965117032813
-0.147579437318021
-0.163272634624859
-0.174620815027252
-0.182305575679539
-0.187017517964571
-0.18939287191505
-0.189983136247998
-0.189249823121406
-0.187572731895472
-0.185261136608703
-0.182561302765209
-0.17965837884867
-0.176674221073809
-0.173664721405188
-0.170620963809195
-0.167478172832625
-0.164134926656537
-0.160482536887021
-0.156441111626682
-0.151995299648353
-0.147220331020387
-0.142289167577243
-0.137455041458875
-0.133009750976769
-0.129225119666949
-0.126290901283931
-0.124265074724693
-0.123050539636697
-0.122405853007775
-0.121988808724258
-0.121423244141854
-0.120373881051572
-0.118612452055369
-0.116060806486422
-0.112802221974427
-0.109059271740812
-0.105143678204069
-0.101389322482313
-0.0980831082111123
-0.0954090202796302
-0.0934180100201503
-0.0920304819364539
-0.0910703520564906
-0.0903218217054827
-0.0895942043375968
-0.0887779713460791
-0.0878773886548633
-0.0870111970654125
-0.0863810212861596
-0.0862152834293384
-0.0867023717920314
-0.087929491712868
-0.0898425841477967
-0.0922381679290896
-0.094790793564796
-0.0971113699763292
-0.0988236993082152
-0.0996411631590736
-0.0994246115898689
-0.0982070997700475
-0.0961802215421624
-0.0936474385030861
-0.0909582659728399
-0.0884406701834869
-0.0863469214730006
-0.084822092848128
-0.0838973112665464
-0.0835042411963404
-0.0835039866473324
-0.0837222538454969
-0.0839827874479792
-0.0841327947478868
-0.0840571230372549
-0.0836814105347102
-0.0829670536816642
-0.0819019651742339
-0.0804908830741761
-0.0787479623763416
-0.0766930572932095
-0.074351844160501
-0.0717588772576429
-0.0689618234176927
-0.0660246380583597
-0.0630276311625102
-0.0600632761949517
-0.0572278261349491
-0.0546098936082521
-0.0522781435477027
-0.0502712977532299
-0.0485944384971722
-0.0472253293570941
-0.0461325315650019
-0.0453034989243589
-0.0447762296750505
-0.0446637628444028
-0.0451588701468902
-0.0465087340270669
-0.0489567724448162
-0.0526593561311923
-0.0575956714144568
-0.0634958942223683
-0.0698133338970635
-0.0757587709105249
-0.0804005093407761
-0.0828151142532826
-0.0822570138533395
-0.0783061127343822
-0.0709554113810665
-0.0606157157934795
-0.0480376949144838
-0.0341752808986299
-0.020030707616001
-0.00652499392435921
0.00557261405016083
0.0156436312541649
0.0231605645872921
0.0276039983292286
0.0284059193346658
0.0249687069436582
0.0167927982280897
0.00371333058907989
-0.0137979916746066
-0.0343541277766713
-0.0555154931398803
-0.0739137742757252
-0.0857181901654738
-0.0874472427176956
-0.0770204360508283
-0.0548286720373725
-0.0245123533317462
0.0068910168527148
0.0297037829803067
0.0333771324851193
0.00912634762518341
-0.0470070652048359
-0.131365788740508
-0.230997704597131
-0.323863620351208
-0.381402977724856
-0.373402258290149
-0.274462776763633
-0.0707657580585341
0.234516257324481
0.618747707158821
1.04134900237046
1.44944633887822
1.78674037117711
2.00379415446701
2.06748692103508
1.96749615583287
1.71832150102626
1.35637924468705
0.932831779160369
0.503803599072241
0.12021886575635
-0.180500044935262
-0.379219403316522
-0.475701630320993
-0.485440002186417
-0.433959851126211
-0.350218395354354
-0.260655791017803
-0.185008887763406
-0.134383133238338
-0.11147749495454
-0.112413803699622
-0.129404237835444
-0.153495729254082
-0.176802093871038
-0.193892543878215
-0.202269181626192
-0.202076511353129
-0.195311437222005
-0.18483810707133
-0.173474079912656
-0.163329684769899
-0.155480621222045
-0.149960355579841
-0.145991617608043
-0.142343903715223
-0.137705219808609
-0.130982273704682
-0.121481184379824
-0.108958804681824
-0.0935650000516238
-0.0757147487620295
-0.0559350370286966
-0.034726912666014
-0.0124709254262868
0.0106115949430137
0.0344443473691305
0.0590432622151059
0.0844446118727147
0.110632487901257
0.137478507082463
0.164699064645281
0.191828775173349
0.218205609835707
0.24296531467332
0.26504919258071
0.283236456672902
0.296214854758936
0.302697403089618
0.301579173298173
0.292110992293069
0.274054131220874
0.247778125168902
0.214274746266237
0.175080896837841
0.132124146785004
0.087519756079407
0.0433540584213115
0.00148690218946017
-0.0366014937250482
-0.069903429943167
-0.0979105553691962
-0.120578727884533
-0.138243892847832
-0.151508087514105
-0.161116382138394
-0.167842951424874
-0.172399513582104
-0.175374177925165
-0.177203930254587
-0.178179063908675
-0.178472728184229
-0.178184368681507
-0.177383582659158
-0.176141870496337
-0.174544202115083
-0.172679306114548
-0.170614954909757
-0.168369789017639
-0.165894885384454
-0.163076000167619
-0.15976151127608
-0.155812571481511
-0.151163229831999
-0.145872599749564
-0.140151032152224
-0.134347970036283
-0.128899071578836
-0.124241790014425
-0.120719014773358
-0.118496414636505
-0.1175179506253
-0.117514661073612
-0.118066371592863
-0.118699494080198
-0.118992671993938
-0.118660174037827
-0.117591383344659
-0.115840175904104
-0.113574500354474
-0.111007853405788
-0.108336511707246
-0.10569916906386
-0.103163206559847
-0.10073086872593
-0.0983544899994068
-0.095953238693711
-0.0934304108789046
-0.090694457773439
-0.0876855480323447
-0.0844036692508365
-0.0809283344481394
-0.0774185952949811
-0.0740874812088845
-0.0711551900966189
-0.0687951018573698
-0.0670907538303774
-0.0660183048368278
-0.0654596257301725
-0.0652401979518879
-0.0651779226685406
-0.0651268194485014
-0.0650038726974885
-0.0647953584429107
-0.0645465313509777
-0.0643421639422526
-0.064284554120887
-0.064472395044904
-0.0649813344334432
-0.0658469627899195
-0.0670529520890839
-0.0685288543659565
-0.0701611920620204
-0.0718172313124077
-0.0733750786090794
-0.0747496650967664
-0.0759041917735906
-0.0768411531557371
-0.0775747370500158
-0.0780945130724285
-0.0783355542209511
-0.0781697753130073
-0.0774267018526033
-0.0759411865474313
-0.0736147254628873
-0.0704701811468903
-0.0666797802602714
-0.0625537449040886
-0.0584895552599248
-0.0548950434085897
-0.0521071684933565
-0.0503291783698423
-0.0496021373294499
-0.0498158071218657
-0.0507529750345462
-0.0521537092381152
-0.0537827779272123
-0.0554842312349189
-0.0572110834289756
-0.0590240892369006
-0.0610603295930989
-0.0634782695375672
-0.0663904275971374
-0.0697977029125797
-0.0735403238072531
-0.0772784271758693
-0.0805102108063252
-0.082628578732095
-0.083009897629959
-0.0811216957522448
-0.0766300031089566
-0.0694827566099021
-0.0599462088603013
-0.0485793966031455
-0.0361474528648835
-0.023493991032566
-0.0114091480058488
-0.000535730462616815
0.00865377387011125
0.0158014649644816
0.0205548146486184
0.0224583447973665
0.0209130003493461
0.015257661460336
0.00499050622275202
-0.00990401073362738
-0.0286091109684083
-0.0492337714550659
-0.0688056678798862
-0.0835997747088953
-0.0898345770148802
-0.0846675246981044
-0.0673070704481168
-0.0399578121171408
-0.00826197295544266
0.0190725302473883
0.0316401026258567
0.0196615711494731
-0.0230592929479739
-0.0961519303978094
-0.190469388571464
-0.287480999053645
-0.360890366584394
-0.380656617819731
-0.318978611086741
-0.157155194000916
0.108244836795304
0.461592307856935
0.868131182987676
1.27819343407684
1.63520101459037
1.88593148248756
1.9908241350236
1.93195605991368
1.71678596834441
1.37673785361337
0.960930790193391
0.526536005625995
0.128035868760773
-0.192161531211092
-0.409784189369289
-0.520445663681182
-0.537237276490383
-0.485276094572311
-0.394854293042047
-0.294874245693875
-0.207883346985763
-0.147417576230781
-0.117717637311451
-0.115356827343981
-0.13201122399229
-0.157532721947941
-0.182614995765931
-0.200595933269757
-0.208231963073076
-0.205536514724226
-0.194948954871638
-0.180174900544927
-0.165023828481514
-0.152491839883925
-0.144227922554061
-0.140410112035956
-0.139966153123448
-0.141015692095421
-0.141392265537735
-0.139118889274182
-0.132749650968653
-0.121537329550765
-0.10543127319069
-0.0849427911156861
-0.060934126986993
-0.0343912876999614
-0.00623154191124935
0.0228233600526178
0.0523004868262227
0.0819665851442832
0.111776667620604
0.141799885855248
0.172135764481979
0.202826648770903
0.233768287333598
0.264621561084403
0.29473386490672
0.323086181257792
0.348287793230666
0.368640459440958
0.38228425360667
0.387418314196175
0.382566642464415
0.366840288999482
0.340140438458404
0.303255348783724
0.257825688601043
0.206181164656495
0.151078262751358
0.0953873008100383
0.0417830055797447
-0.00751322539676312
-0.0509058338389259
-0.0874971582019856
-0.117061438678084
-0.13993743539788
-0.156866409800865
-0.1688080992966
-0.176768478537389
-0.181668343706779
-0.184270500762942
-0.185167318104881
-0.184813995719332
-0.183581515397369
-0.181800857202469
-0.179777544892044
-0.177770303290515
-0.175944304449303
-0.174321874792183
-0.172756704287942
-0.170950246410201
-0.16851421678266
-0.165066788153618
-0.16033809521184
-0.154256582913261
-0.146992133373911
-0.138942880642778
-0.130666888988792
-0.122773774956856
-0.115801403696599
-0.11010624202686
-0.105791930096775
-0.102690882580544
-0.10040169790782
-0.0983739728335311
-0.0960234190152827
-0.0928545517578939
-0.0885662731138821
-0.0831183020524022
-0.076744114841661
-0.069907972246782
-0.0632169793053064
-0.0573098697360834
-0.0527486417498005
-0.0499360321324535
-0.0490729176344075
-0.0501586151559329
-0.053027062453474
-0.0574052702039465
-0.0629783235515946
-0.0694472486654179
-0.0765705539112905
-0.0841851166512927
-0.0922060774509316
-0.10060844801815
-0.109395629033236
-0.11856208525933
-0.128058687509696
-0.137769077178357
-0.147503287511434
-0.157010778344391
-0.166009933244389
-0.174226575470516
-0.181431876794523
-0.187471168821198
-0.192279286884704
-0.195883132839246
-0.198395100164073
-0.200000017100261
-0.200934603717362
-0.201455867373322
-0.201796640483087
-0.202112737007257
-0.202433775809647
-0.202633986737929
-0.202436956523296
-0.20145932410409
-0.199286515319857
-0.195563796271185
-0.190081657661282
-0.182836070071469
-0.174049816453375
-0.164149573306872
-0.153703857489267
-0.143337264590392
-0.133642606702107
-0.125111262279807
-0.118093618746501
-0.112790017138543
-0.109263127998223
-0.107458349487434
-0.107220030818773
-0.108296563348114
-0.110334473684922
-0.112868549316262
-0.115319832184388
-0.11701418848436
-0.117229915828287
-0.11527407911334
-0.110576733647147
-0.102783668955864
-0.0918249178625611
-0.0779397531759239
-0.0616493677687645
-0.0436837434843063
-0.0248844674427029
-0.00611420986713448
0.0117985131618246
0.0280647505213118
0.0418986504836674
0.0524705621787325
0.0588964387410593
0.0603095086477505
0.0560399259626327
0.0458910065394983
0.0304552511046335
0.0113725427455711
-0.00858881475144532
-0.025737846745652
-0.0360156384341381
-0.0358784572893991
-0.0233827599668012
0.000761445989681194
0.0324803650270237
0.0642964295331293
0.0862119732806856
0.0875971341025513
0.0599074181226239
-0.000233943696828411
-0.0883054008727532
-0.190350323463289
-0.283396801584118
-0.338272005702796
-0.324704602909542
-0.21795078961696
-0.00558456242862911
0.307235512749618
0.695610687619061
1.1168678126393
1.51670683865405
1.8385119269253
2.03391243349732
2.07224129357827
1.94669871776815
1.67575680417868
1.29945171399591
0.871426021958998
0.448592791381973
0.0808166180397864
-0.197111756656016
-0.369650411626582
-0.440352165005322
-0.427990601181736
-0.360359362968013
-0.267448104284482
-0.175537230084345
-0.103255160041095
-0.0600012603032362
-0.0465412066020181
-0.0571601560369548
-0.0825690841454475
-0.112788988417209
-0.139427168612926
-0.157029081029011
-0.163460359474245
-0.159487774069505
-0.147853594252179
-0.132170234794923
-0.115917249296904
-0.101729148795505
-0.091052056036199
-0.084147473807261
-0.0803509954591759
-0.0784607323968786
-0.0771332029655907
-0.0751945268109102
-0.071818552960646
-0.0665672234239452
-0.0593219834193425
-0.0501538225166865
-0.0391834545924183
-0.0264746592275467
-0.0119867491363512
0.00440879678999424
0.0228622167278246
0.0434582036549452
0.0661395837132546
0.0906664526061166
0.116618921128711
0.14343289547473
0.170445188780271
0.196922504929281
0.222059256231363
0.24494719938774
0.264537641391951
0.279626889763685
0.288893635010885
0.29100375627308
0.284777977301421
0.269396795162068
0.244601133654787
0.210841157524962
0.16933208057312
0.121993404836186
0.071272243486604
0.0198760227428069
-0.0295408495270451
-0.074681967169275
-0.113852832623737
-0.146103596076083
-0.171251465927189
-0.189788378174507
-0.202702351924451
-0.211255944986684
-0.21676822825676
-0.220437583064622
-0.223225656177808
-0.225804569538915
-0.228555791012758
-0.231602855265822
-0.234861027357017
-0.238092325669672
-0.240960572912121
-0.243085522770461
-0.244096331559991
-0.243682970249164
-0.241641050109899
-0.237903148148032
-0.232550135913827
-0.225799901420508
-0.217976750690839
-0.209469887690655
-0.200691253090617
-0.192040804348334
-0.18388213621709
-0.176525859879605
-0.170215454730874
-0.165111861426889
-0.161277507968506
-0.158664507190137
-0.157112941102447
-0.156363320727225
-0.156083994980637
-0.155910971767384
-0.155495021790116
-0.154549290528058
-0.152890019050576
-0.150463289239576
-0.147351864028042
-0.143758378934174
-0.139964781039867
-0.136273058889275
-0.132938010770424
-0.130107077203701
-0.12778289296737
-0.125819967461964
-0.123958463909165
-0.121887942782663
-0.119325437238663
-0.116087966602623
-0.112140739420402
-0.107608522168511
-0.102747348194194
-0.0978843020215943
-0.0933415902958358
-0.089365235612109
-0.0860774895067229
-0.0834655480750713
-0.0814085055813529
-0.0797323645777153
-0.0782735309226732
-0.0769286504672689
-0.0756743685654985
-0.0745522794075052
-0.0736270694972349
-0.0729347311524446
-0.072439864087575
-0.0720164616997463
-0.0714576935004365
-0.0705109124327078
-0.0689278340514583
-0.0665178538685341
-0.0631936811841959
-0.0590006300953239
-0.0541226409247452
-0.0488601227149709
-0.0435790593855156
-0.0386384577861911
-0.0343120769357998
-0.030726101787879
-0.0278332044509548
-0.0254345204310214
-0.0232471512165141
-0.0210006722584945
-0.0185367017945908
-0.0158839797087311
-0.0132875834937363
-0.0111820818403313
-0.0101111263415634
-0.0106078340970311
-0.0130598661397491
-0.0175886742919677
-0.0239719815659308
-0.0316311372085403
-0.0396915524973932
-0.0471079659819681
-0.052830868184956
-0.0559800253566343
-0.0559884851559143
-0.0526866016871967
-0.0463094182638611
-0.0374295489731807
-0.0268373470410148
-0.0154050915468833
-0.00397650337757314
0.00668623867854099
0.0158876455063647
0.0229345817530078
0.0270669954327056
0.0274417341287971
0.0232205259597658
0.013783908396349
-0.000953347157144862
-0.0202009721484269
-0.0420421886948693
-0.0634030749158285
-0.0803488406581866
-0.0887493332662372
-0.0852588625265841
-0.0684433956510788
-0.0397878792355882
-0.00425870677782828
0.0298896475098627
0.052269426238286
0.0524836828426437
0.022962739584952
-0.0380219478752668
-0.123916333690648
-0.218832691686518
-0.298561373467972
-0.333936696096488
-0.296278349933027
-0.163995592290691
0.0710745374965497
0.399232113756445
0.791792684419182
1.20402338891749
1.58191866574349
1.87159703013704
2.02935474839652
2.03014607983936
1.87255421915912
1.57909542306389
1.19176799958064
0.76386372023555
0.349929327914047
-0.00383986057082404
-0.266700957370913
-0.426637558137292
-0.489533559514912
-0.474982577893581
-0.41015186138739
-0.323336172507223
-0.238612241032398
-0.17248316541888
-0.132778243189312
-0.119523347241334
-0.127135848486015
-0.14716663141176
-0.170884567012667
-0.191208576180417
-0.203757317007896
-0.207033420487125
-0.20193838550903
-0.190904509073996
-0.176935517403691
-0.162788920416166
-0.150439573644801
-0.140864487459373
-0.134106464777208
-0.1295222600794
-0.126103718139428
-0.122773901574396
-0.118594672457601
-0.112864220158576
-0.105119628980284
-0.0950819861380434
-0.0825870289969535
-0.067535470628971
-0.0498797115135852
-0.0296446171208891
-0.00696562420109078
0.0178786000342765
0.0444586894522058
0.0722217744364656
0.100548822854376
0.128824496143726
0.156494410866113
0.183086099959054
0.208180501932441
0.231337545064978
0.251997337630928
0.269391934470324
0.282506554389683
0.290120616231156
0.290938989825311
0.283797589931378
0.267902886648542
0.243050230055253
0.209766379958216
0.169337476522337
0.123709825000261
0.0752793330464215
0.0266086969498866
-0.0198753980090683
-0.0621514918037265
-0.0987950715184475
-0.129066579002695
-0.152891013548883
-0.170745369984627
-0.183486357881391
-0.192158870850213
-0.197823600571346
-0.201430923764971
-0.203751728508098
-0.20535968543547
-0.206648258466307
-0.207861851323504
-0.209123748439264
-0.210451663812238
-0.211761282238593
-0.212865867083207
-0.213483767969806
-0.213264747102252
-0.211840639832067
-0.208897180713311
-0.204254352106953
-0.197935621244349
-0.190204777615014
-0.18155419564976
-0.172639707676129
-0.164172106352036
-0.156788888245843
-0.150937153837763
-0.146796611440023
-0.144260971424874
-0.142980360052982
-0.142451772321544
-0.142133558239201
-0.141556208179484
-0.140405458107283
-0.138562842122852
-0.136100018841949
-0.133233515118131
-0.130253978576959
-0.127447627842446
-0.125027261240548
-0.123086599569675
-0.121585864947995
-0.120369283360232
-0.119207880614997
-0.117855403219179
-0.116103295575765
-0.113822868210822
-0.110987716603372
-0.107674926248691
-0.104047994211954
-0.100326995872905
-0.0967522380911441
-0.0935468479650198
-0.0908823072978493
-0.0888499004920874
-0.0874410438905708
-0.0865402873231196
-0.0859352699390355
-0.0853464875144303
-0.0844755019839831
-0.0830641481824769
-0.0809520650525706
-0.0781182609154441
-0.0746954102867999
-0.0709520720383113
-0.0672458518720878
-0.0639575180133568
-0.0614204393248055
-0.0598603579716524
-0.0593573958886848
-0.0598364082292341
-0.0610851020123347
-0.0627935824643028
-0.0646056119324642
-0.0661714183713974
-0.0671937507860949
-0.0674616641990315
-0.0668690957413226
-0.0654174749647677
-0.0632038536143233
-0.0603986112479541
-0.057219217689908
-0.0539076446002337
-0.0507175278288052
-0.0479126240273716
-0.0457716744742084
-0.0445892226522933
-0.0446601898758958
-0.0462397243569635
-0.0494786034273627
-0.0543459693927303
-0.0605615115850953
-0.0675636808781089
-0.0745355969675796
-0.0804959310756827
-0.084442465713377
-0.0855181934843107
-0.0831604716217393
-0.0771968968610528
-0.0678669173001214
-0.0557709053717085
-0.0417704372600445
-0.026876506017905
-0.012160923929595
0.0012899392380941
0.0123850348251919
0.0200322595289487
0.0231787656810182
0.0209257477187477
0.0127320655079096
-0.00131522120286213
-0.0202253433132678
-0.041917872260845
-0.0632343241095678
-0.0802395542566537
-0.0888549453935234
-0.0857832369177122
-0.0695829353308801
-0.0416506277826795
-0.00680215331891835
0.026859135320746
0.0490113394284153
0.0491595381501268
0.019435077726906
-0.0423612272849139
-0.130215254707616
-0.228689537783014
-0.313757423827125
-0.356024627871193
-0.326112739888192
-0.201329754229439
0.0277951105025226
0.352784748116575
0.74577905687584
1.16222743475554
1.54757116261419
1.84673592347311
2.01444979139255
2.02408137006031
1.87295943613998
1.5829228979697
1.19595839014926
0.765939642998965
0.348395781991188
-0.00934681021599199
-0.275511102241658
-0.437331876773611
-0.500331697025276
-0.484141144114939
-0.416297530065425
-0.325685088835389
-0.237057098251368
-0.167553998310665
-0.125499876262253
-0.111202811036476
-0.119119108618873
-0.140606341213866
-0.166558105993949
-0.189416705264908
-0.204318102208737
-0.209366181905599
-0.205213441129539
-0.194222055281646
-0.17949459507602
-0.164014812555345
-0.150051688321741
-0.138882032906083
-0.130802129563301
-0.125342809672391
-0.121580659137709
-0.11844716121102
-0.114967166666999
-0.110395150728258
-0.104250965200108
-0.0962794841322249
-0.0863688538672873
-0.0744616995980877
-0.0604860627866095
-0.0443217415647624
-0.0258060195302432
-0.00477254956077643
0.0188898965518256
0.0451745553205643
0.0739029683051016
0.104688016287101
0.136915199634724
0.169739862888323
0.202097538990376
0.23272685419081
0.260208029025955
0.283023015209226
0.29964380590015
0.308652111187612
0.308886169219509
0.299600161768084
0.280611283134928
0.252402950703401
0.216153791326622
0.173672604117932
0.127237788964389
0.0793610351492589
0.032513306787025
-0.0111391764565823
-0.0499433187283999
-0.082879445470061
-0.109581200507018
-0.130263655930015
-0.145584477484126
-0.156471287674738
-0.163948215992803
-0.168987860059493
-0.17240481771942
-0.174796924204693
-0.176532322993136
-0.177774839202104
-0.178536304326105
-0.178742154619454
-0.178295986046797
-0.177130329351829
-0.175235079499432
-0.172661337178286
-0.169505282221223
-0.165881798355546
-0.161899116018226
-0.157643391187824
-0.153177034978191
-0.148548816935378
-0.143809523660374
-0.139025772008523
-0.134286454006739
-0.129699777917173
-0.125382096817706
-0.121441522209931
-0.1179596140267
-0.114973912611615
-0.112463775273836
-0.110342647979615
-0.108461109008278
-0.1066249679399
-0.104629622930884
-0.102305987656596
-0.0995671602767997
-0.0964418510189093
-0.0930823260036879
-0.0897410704183731
-0.0867194842553217
-0.0843005612237643
-0.0826826494294793
-0.0819314736016035
-0.0819628937874194
-0.0825608488342989
-0.0834255615393634
-0.0842388175265882
-0.0847286505365226
-0.0847168289253101
-0.0841387968167386
-0.0830347685155431
-0.0815191974533694
-0.079740970514936
-0.0778469985538953
-0.0759579847706353
-0.074159316737812
-0.0725047612653553
-0.0710273525165325
-0.0697507767667035
-0.0686955306540525
-0.0678769678361921
-0.0672963227567614
-0.0669294382410549
-0.0667196561917004
-0.0665803454208837
-0.0664091150842703
-0.0661111058076014
-0.0656246413823034
-0.0649407048051361
-0.0641090856970808
-0.0632282456281699
-0.0624215042420099
-0.0618070860308568
-0.0614718963231294
-0.0614573189100245
-0.0617601885882698
-0.0623456502368963
-0.0631639448918321
-0.0641624065983431
-0.0652873421749502
-0.0664764592889695
-0.0676484795914603
-0.068699730805227
-0.0695160710444104
-0.0700025796727458
-0.0701249762086721
-0.0699486006209373
-0.0696561808895756
-0.0695274530197149
-0.0698735393119912
-0.0709353423652787
-0.0727727500228576
-0.0751824708624356
-0.0776802036935872
-0.0795657263962311
-0.0800622044124289
-0.0784938818591119
-0.0744507292632496
-0.0678915324084276
-0.0591574523152115
-0.0488983357242945
-0.0379427675970097
-0.0271596731118609
-0.0173579447016857
-0.0092510773864913
-0.00348283832692759
-0.000678859434509902
-0.00146955273819806
-0.0064305161389609
-0.0159107878586973
-0.0297633730879603
-0.0470455626745541
-0.0658018709052744
-0.0830612407124211
-0.0951578333696496
-0.0984163339602347
-0.09013688934251
-0.0696940362290504
-0.0394608405700548
-0.00521959054822115
0.0242460464667353
0.0385496091500456
0.0280380986157216
-0.0132692325563361
-0.0847497294827383
-0.177049666123862
-0.271570202763802
-0.342163355460005
-0.359187832473169
-0.295463252472173
-0.133028644430916
0.130850077817658
0.480083676984202
0.879875875691666
1.28106160185456
1.62812913293385
1.86937414081957
1.96696035105011
1.90454911319315
1.69066524924108
1.35696693991914
0.951823244607741
0.530745064566291
0.145946527548852
-0.16257794446445
-0.372611839149606
-0.481051274508842
-0.501271905516386
-0.457686291512937
-0.379119963810212
-0.292619883404783
-0.21890701028054
-0.170076998150962
-0.149533648363714
-0.153660150384846
-0.174474057739901
