0.0137605576456309
0.0298393166291676
0.0460960257692951
0.0626645510871317
0.0795965584934402
0.0968321093805725
0.11418764469419
0.131367852484676
0.148004586071782
0.163720776490231
0.178210598675652
0.191319778726216
0.203104772427886
0.213850844672934
0.224038703530065
0.234264382621659
0.245131575405309
0.257144241710201
0.270627227990254
0.285693799161871
0.302264038830813
0.320122067190425
0.33898851393554
0.358581394799078
0.378644298029058
0.398933664694943
0.419172629484036
0.438991712507496
0.457882008805056
0.475183043649242
0.490116877662797
0.501865531561102
0.509674316607619
0.512954124361189
0.511355512193402
0.504797107541648
0.493445959155238
0.477661206858515
0.457919990157812
0.434744913644769
0.408647654142035
0.380096562298027
0.349509933547371
0.317271885470712
0.283764011864491
0.249402954418297
0.214672593624691
0.180140568387098
0.146451939326629
0.11429708228831
0.0843560282563506
0.0572273196060299
0.0333547452992976
0.0129678292856134
-0.0039498298638253
-0.0176561877508202
-0.0286107066258954
-0.0374076183831841
-0.0446972218065752
-0.0511107698510823
-0.0572007359643542
-0.0634019868929357
-0.0700128783849344
-0.07719034392131
-0.0849514907839262
-0.0931772047020513
-0.101619410061994
-0.10991880846748
-0.117640039409383
-0.124325423356278
-0.129559658514801
-0.133030703852937
-0.134570609767869
-0.134165797563433
-0.131937161900712
-0.128101159040226
-0.122928147255367
-0.116711107803318
-0.109748498057447
-0.102334769651859
-0.0947470726752057
-0.0872203601340983
-0.0799138745540456
-0.0728831678707592
-0.0660756593806767
-0.0593609203842814
-0.0525925396218778
-0.0456836696921919
-0.0386700890721705
-0.0317367865094029
-0.0251962631716964
-0.0194239115457382
-0.0147704947103014
-0.0114782483132241
-0.00962444831290837
-0.0091071569179615
-0.00967593119277639
-0.0109985739481085
-0.0127459711329281
-0.0146727107922013
-0.0166728038969217
-0.0187975563508502
-0.0212346868397275
-0.0242597469802934
-0.0281770338334318
-0.0332643020601713
-0.0397263715133344
-0.0476543887959794
-0.0569862706531358
-0.0674704420288662
-0.0786445826288855
-0.0898469006863934
-0.10027454067747
-0.109091528827201
-0.115571233334066
-0.119242427525648
-0.120000180973608
-0.118146970719995
-0.114345981833629
-0.1094934384094
-0.1045414754284
-0.100317686747098
-0.0973862162692174
-0.0959796662765458
-0.0960085583778059
-0.0971340572745432
-0.0988760609876565
-0.100724964663016
-0.102230726894802
-0.103054396912378
-0.10298116905388
-0.101906607491007
-0.0998153199361317
-0.0967706984573589
-0.0929243765039907
-0.0885386584519745
-0.0840023642433006
-0.079817670569953
-0.0765446881537056
-0.0747076184872637
-0.0746838529777545
-0.0766079363693831
-0.0803215001625003
-0.0853880339548499
-0.0911717367923915
-0.0969591468114058
-0.10208773428861
-0.10604279386746
-0.108495053790081
-0.109273539689374
-0.10829375461479
-0.105480962929538
-0.100734967543552
-0.0939723775960817
-0.08525534696654
-0.0749781511485153
-0.0640466980674767
-0.0539654141194952
-0.0467513491099599
-0.044628980156811
-0.0495147997837341
-0.0623663321008159
-0.0825310147052736
-0.107271242702839
-0.131648741389553
-0.148913116596191
-0.151450973629227
-0.132220290474157
-0.0864436107577285
-0.0132031633917448
0.083482168435958
0.194476973719312
0.306468079188444
0.403991546811977
0.472225556329008
0.499972661188271
0.48212207203088
0.420935846122786
0.325759222786676
0.211161854345735
0.0939523395445125
-0.0101766047634832
-0.0895345717350508
-0.138190991691956
-0.156302089371686
-0.149111442287142
-0.125049487386446
-0.0935123451543191
-0.0628749578410923
-0.0391304684658099
-0.0253201596185006
-0.0217000770988041
-0.0264347730770944
-0.0365390448711698
-0.0488013469044558
-0.0604943343471936
-0.0697763168037593
-0.0757817641289148
-0.0784686473439069
-0.0783264185445706
-0.0760518483354675
-0.0722785465848343
-0.0674109850749641
-0.06157622953551
-0.0546748396421046
-0.0464921459512897
-0.0368252576119201
-0.0255887216824083
-0.0128772913500787
0.00101971367408044
0.0156466829471815
0.0304411755695086
0.044811044302303
0.0582149949610858
0.0702320090818314
0.0806058621293286
0.0892551035885132
0.0962478130794043
0.101752317257154
0.105984521488257
0.109174185589586
0.111564452803946
0.113443661482247
0.115191492082327
0.11730987681749
0.120408987430229
0.125131937155404
0.132024261075611
0.141377033388853
0.153086952875139
0.166577832366484
0.180815339612716
0.194424364094266
0.205892450902035
0.213820175915387
0.2171655410017
0.215427982369847
0.208730004559277
0.197779107098612
0.183723077648579
0.16793782811585
0.151799772627994
0.136491101137146
0.122869946033773
0.111416367121482
0.102247156491359
0.0951818134302869
0.0898381192430474
0.0857356550134817
0.0823875504254207
0.0793652689641492
0.0763293113231639
0.0730292508406102
0.0692859031595078
0.0649725217251804
0.0600085434480123
0.0543699601049437
0.0481094423547163
0.0413723480177687
0.0343948041045948
0.0274762478277345
0.0209276992381188
0.0150055663660284
0.0098473457718646
0.00542870067036592
0.00155899073741081
-0.00207671762122941
-0.00583506275198267
-0.0100115241095699
-0.014747122605703
-0.0199747247577597
-0.0254241640267085
-0.0306865469644105
-0.0353186590513703
-0.0389563037230798
-0.0414046074874499
-0.0426822901569156
-0.0430110429035322
-0.0427557712655833
-0.0423330524141003
-0.0421116175546935
-0.042329242151344
-0.0430454465894667
-0.0441399803387213
-0.0453551955930902
-0.0463692358722732
-0.0468798415031438
-0.0466774538346491
-0.0456908731040303
-0.0439970135628727
-0.0417956536986763
-0.0393580136201263
-0.0369631550033321
-0.0348387564041939
-0.0331230489229115
-0.0318611847771853
-0.0310399254773981
-0.0306502158742707
-0.030753883862551
-0.0315259552407416
-0.0332513842646233
-0.0362713034279078
-0.0408920707191571
-0.0472835065691478
-0.0553967935233684
-0.0649273318904456
-0.0753361602398238
-0.0859291340584251
-0.0959788430481345
-0.104862297964274
-0.112180262370256
-0.117824929865072
-0.121973312546788
-0.125002724849818
-0.127347352289495
-0.129334589105312
-0.131049996810205
-0.132275526335847
-0.13252643516585
-0.131183154048121
-0.127684532735216
-0.12172840002171
-0.113421099112483
-0.103330994897261
-0.0924274250859192
-0.0819178395048909
-0.073023095878296
-0.0667473224154058
-0.0637005236662238
-0.0640181245219159
-0.0673944174659646
-0.073213348124763
-0.080730537716712
-0.0892450552186039
-0.0982044417983133
-0.107211803323366
-0.115942318412011
-0.124015257776737
-0.130891755105782
-0.135867485972854
-0.138201164564202
-0.137371578145028
-0.133401361107514
-0.127141160741909
-0.120388621619594
-0.115733549651604
-0.1160767884111
-0.123858791281236
-0.140136643135018
-0.163737716939583
-0.190762434803674
-0.214681933310692
-0.227169951992673
-0.21963622147224
-0.185227343788106
-0.120882048255974
-0.0289259055369513
0.0822898276198947
0.199041729624499
0.304237236992273
0.380480869245609
0.413595195712153
0.395783780170364
0.327619199225914
0.218272130311649
0.083830941366563
-0.0559219133212744
-0.181477687554379
-0.277318833255823
-0.33450183356743
-0.351587694648422
-0.333884776039998
-0.291401252510035
-0.236164579342822
-0.179608051554862
-0.13058032738808
-0.0942806194838192
-0.0721503436069676
-0.0625341559773071
-0.0617989111055567
-0.0655733681966658
-0.0698252141287113
-0.0715937817224716
-0.0693132035327218
-0.0627630439899735
-0.0527527856934722
-0.0406756197530694
-0.0280589941202197
-0.0162051468656656
-0.0059693734251803
0.00231833852135411
0.008811948153472
0.0140262485265568
0.0186727225812407
0.0234910439693643
0.0291054647104918
0.035926047311679
0.0441042024622728
0.0535413032933287
0.0639402241368866
0.0748844391699267
0.0859280421566993
0.0966810297422025
0.106875830760985
0.116403619612215
0.125313696689604
0.133776189967111
0.142015707843272
0.150229248084026
0.158504727743074
0.166757051496764
0.174696812247347
0.181842158768038
0.187576531902507
0.191244197465382
0.192264282217866
0.190236934248199
0.185016365221277
0.176735147551562
0.165778174562053
0.152717741137548
0.138229548927367
0.123011493426837
0.107722612610442
0.092949897907958
0.0791991668535518
0.066897300945971
0.0563904103940563
0.0479272631487307
0.0416280651107862
0.0374506092993126
0.0351724745333092
0.0344052815585109
0.0346464379275962
0.035360837851833
0.0360748665530603
0.036460305987515
0.0363870354544816
0.0359307394843026
0.0353337497015072
0.0349301101263109
0.035055490154043
0.0359654857418332
0.0377816134104514
0.040475058715486
0.0438877761751482
0.0477823879728873
0.0519079620206005
0.0560673911507984
0.0601723897998942
0.0642737190052128
0.0685576912562683
0.0733056738995193
0.0788208681893238
0.0853350200940673
0.0929149560979027
0.10139230284606
0.110337512080467
0.119091509718789
0.126856715441446
0.132835830764905
0.136393734883403
0.137208259245249
0.135373438687955
0.131426177413522
0.126282760503175
0.121091419625849
0.117026782548578
0.115067247210945
0.115803201587417
0.119319874545097
0.125183284010926
0.132534114624308
0.140267982402316
0.147258767746501
0.152571525922248
0.155616485696022
0.156213937999507
0.154565020349417
0.151147664210876
0.146573581827297
0.141447023147606
0.13625872344117
0.131332709470266
0.126825788389725
0.122765573573508
0.119106122362889
0.115780978266587
0.112739563425964
0.109961057384697
0.107447082345894
0.10519954299647
0.103193224962166
0.101354243902262
0.0995539795641082
0.097622886528196
0.0953807996394048
0.0926731420762525
0.0893990373930796
0.0855197405969075
0.0810440555404979
0.0759988410213866
0.0704022175743094
0.0642592671685918
0.0575922132952274
0.0505010856232488
0.0432326667204071
0.0362234003934231
0.0300832989876807
0.0255049489850514
0.0231091545232191
0.0232657050068639
0.0259430267268783
0.0306374496980789
0.0364117645213257
0.0420407172823476
0.0462294520430334
0.047850651049341
0.0461430609155698
0.0408271297932399
0.032116742059369
0.020632355340421
0.0072439022952396
-0.00711319023169131
-0.0216015639025673
-0.0355856894212051
-0.0486548130084964
-0.0605691890534459
-0.0711593763045383
-0.0802267112469457
-0.0874968477607429
-0.0926639553870678
-0.0955326631749189
-0.0962251975646009
-0.0953834923803265
-0.0942733536379726
-0.0947014369861661
-0.0986915042129222
-0.107931128752081
-0.123081011225074
-0.143115088796923
-0.164904882279928
-0.183253150991055
-0.191508713601675
-0.182762692368717
-0.151461626614971
-0.0951154433560963
-0.0156763784101609
0.0798385370920263
0.179792221783441
0.269524785875458
0.333899167866905
0.360308325955576
0.34146262599298
0.277243674509792
0.175081592164761
0.0486677436028353
-0.0847370965760131
-0.207741957364156
-0.306150089855443
-0.371368014913061
-0.401397504029058
-0.400327792366688
-0.376637093835809
-0.340862387132362
-0.303257548584738
-0.271952154829516
-0.251909812762043
-0.244742865428268
-0.24923658557393
-0.262311651287541
-0.280119757502161
-0.299009681730018
-0.316191684873076
-0.330034911575343
-0.340028198629152
-0.346501606575226
-0.350236887224004
-0.352091464925171
-0.352729486699632
-0.352505890721164
-0.351498358326394
-0.349640550396866
-0.346887969393862
-0.343348983597091
-0.339335131066431
-0.335318141878322
-0.331814383107379
-0.329239894987543
-0.327785180151663
-0.327349149603429
-0.327551404509242
-0.327818416682718
-0.327519051469873
-0.326113450611693
-0.323278575963772
-0.318982143802336
-0.313490580510044
-0.307312229563156
-0.301091262530362
-0.295478036279566
-0.29100603076095
-0.288003059053951
-0.28655548064555
-0.286530438533964
-0.287646144874858
-0.289568417137565
-0.292006467000277
-0.294783165898447
-0.297863027763472
-0.301332183317313
-0.305335635577197
-0.3099855119882
-0.315258834754559
-0.320905399885914
-0.326387016885958
-0.330868267679086
-0.333273775834536
-0.332415605681351
-0.327177439879963
-0.3167236283511
-0.300687173582112
-0.279287342085957
-0.253338749558336
-0.224138819289372
-0.193253134832383
-0.162247866810911
-0.132434428046813
-0.10468746594809
-0.0793743056902375
-0.0564005725201406
-0.0353454938530103
-0.0156418621235563
0.0032464890351481
0.0216861365597929
0.039794509605146
0.0574239757512278
0.0742036023742797
0.0896269845588877
0.103171026674081
0.114425914576972
0.123210680529324
0.129646062391905
0.134161999608883
0.137432231552382
0.140248611003186
0.143365541570172
0.147353793655888
0.152499441547632
0.158768862515297
0.165840287234823
0.173184407331998
0.180167714044183
0.186154474056559
0.190593013486261
0.193082526323086
0.193422009008036
0.191641745517121
0.188013715034618
0.183035568121576
0.177385607593359
0.171851591382286
0.167240838734165
0.164281478297056
0.163525615828303
0.165266707168731
0.169486297381877
0.175847252437063
0.183746849919707
0.192430228200556
0.201145251853758
0.209302363062229
0.216596743204587
0.223059187934225
0.229023355502741
0.23502225033361
0.241646470858775
0.249404028337153
0.258615181890501
0.269360493289323
0.281483846365885
0.294640444551965
0.308374368991412
0.322209137839874
0.335735048434431
0.34867781084077
0.360935401102786
0.372576287608898
0.383802284095945
0.39488979048986
0.406128841855174
0.417776848798023
0.430034122168207
0.443035937096455
0.456847103518444
0.471444460183859
0.486681157419915
0.50223995671172
0.517594338444058
0.532000841315659
0.54454264355977
0.554234666275985
0.560186697195424
0.56180542828625
0.559001652762228
0.55235831058086
0.543211401844847
0.53360157523955
0.526071895643454
0.523317502424828
0.527731526150382
0.540929143367063
0.563355376777732
0.594080954043292
0.630859000178611
0.670457884738815
0.709216586616794
0.743708673482952
0.771367636810746
0.790929500372578
0.802587383420295
0.807817487920511
0.808911856892096
0.808323155378561
0.807974619121983
0.808701991129474
0.809967851601172
0.809925305401406
0.805821117754237
0.794640140273897
0.77382730343196
0.741899040848228
0.69878086719283
0.645778227904424
0.585188203759179
0.519664712858884
0.45152932137333
0.382247505530505
0.312252943440887
0.24120515512942
0.168632129478294
0.0947764660246602
0.0213712837422224
-0.0479477168347222
-0.107821362083628
-0.15202035099513
-0.174863819057547
-0.172902480215061
-0.146431383862566
-0.100369774263503
-0.0441492359890153
0.00952611099504698
0.0468918585089822
0.0558674453331675
0.02869617219526
-0.0361927723209185
-0.13362240695695
-0.252608452872459
-0.378598778772324
-0.496444573807251
-0.593342734358278
-0.661035719153315
-0.696815322540542
-0.703242146756535
-0.686830279224022
-0.656158985352774
-0.619925255716825
-0.585364521326204
-0.557296151347111
-0.537857444278032
-0.52682603578874
-0.522327093632401
-0.521687464361878
-0.52222495641602
-0.521826672212589
-0.519251401292136
-0.514165877035055
-0.506978373889633
-0.498559319311186
-0.489938652166535
-0.482050334600994
-0.475565013459611
-0.470821474353179
-0.467843251196859
-0.466412401251836
-0.466168624967466
-0.466706580534022
-0.467653875460646
-0.468722954687907
-0.469738764621802
-0.470648752350644
-0.471522045940357
-0.472541521696404
-0.47398785513544
-0.476210898621016
-0.479582813680584
-0.484430357550224
-0.490950328861286
-0.499120786794586
-0.508628540034449
-0.518837374883909
-0.528818844982204
-0.537456910294522
-0.543620257230695
-0.546375343833929
-0.545195018841883
-0.540108975275193
-0.531749089651874
-0.521266326686324
-0.51013099341385
-0.499862823940013
-0.491757902559
-0.486677337606447
-0.48493963579406
-0.486325672251821
-0.490175536183403
-0.495539938446297
-0.501347662995133
-0.50656054029243
-0.510300848474498
-0.511945496003682
-0.511183551541895
-0.508031201169694
-0.502797134919829
-0.495996594660061
-0.488224063582234
-0.480008465530503
-0.471684401636539
-0.463313062578379
-0.454675268731133
-0.445339631988642
-0.434787694440005
-0.42256206944663
-0.408397669086534
-0.392301348541724
-0.37456009124569
-0.355678048938543
-0.336262538737358
-0.316892837598153
-0.298009643171742
-0.279856371271253
-0.262487497549291
-0.24583798224819
-0.229827997756644
-0.214465863946109
-0.199913602217784
-0.186493017212804
-0.174630413204563
-0.16475781540085
-0.157201493390849
-0.152090933525489
-0.149313352281029
-0.148524276252088
-0.149209172236407
-0.150779099343997
-0.152676955917704
-0.154470134752017
-0.155909414973961
-0.156941784780197
-0.157675627409809
-0.158308575848447
-0.159038287264028
-0.159980746395826
-0.161117351838079
-0.162282232531173
-0.163189237426653
-0.163488484965597
-0.162837683008605
-0.160973171692119
-0.157767617227447
-0.153263421816236
-0.147672756192514
-0.141338130585334
-0.134653528586924
-0.127955499554626
-0.121403788278719
-0.114878327826034
-0.107920604067314
-0.0997410340077036
-0.0893006430126865
-0.0754578933482375
-0.0571549203853461
-0.0336069489606357
-0.00445766949599955
0.0301282913526833
0.0694507060636972
0.112337644929288
0.157278226143393
0.202607638817337
0.24672160584227
0.288289809550124
0.326430943978986
0.360811610373451
0.391642246311673
0.419565990035128
0.445465021396586
0.470233220452344
0.494573387081681
0.51886643838405
0.543132905940765
0.567075951259839
0.59017386573716
0.611786102268413
0.631247981950291
0.647946137474654
0.661379591986193
0.671214713931742
0.677337009693968
0.679894030380923
0.679317108208816
0.676308117132813
0.671781309578697
0.666758783128528
0.662229875786154
0.658996971325952
0.657538678828872
0.65792223678017
0.659788545825898
0.662416922441709
0.664856934310997
0.666097557039452
0.665234926731323
0.661602308241676
0.6548392272809
0.644897071164882
0.631998998370369
0.616584818083986
0.599270760938741
0.580839186974628
0.562250180541139
0.544646022648047
0.529311099634873
0.517559602585422
0.510549242411494
0.509051122779606
0.513230065428022
0.522495425534431
0.535468000065589
0.550081541120074
0.563809426006941
0.573987581858031
0.578196471051246
0.574663430400404
0.562643895034123
0.542730172076574
0.517021214647217
0.489076980056186
0.463591461521187
0.445760191761035
0.44038960751125
0.45088040494783
0.47828667038875
0.520678200956882
0.572998720119809
0.627522309547604
0.674887768018421
0.705566565479781
0.711520180371511
0.687742250448188
0.633369422831513
0.552091618003327
0.451706385718195
0.342839224947676
0.237060307158515
0.144805163470503
0.0735806617862054
0.0268668056288057
0.00392827698187293
0.000499381190619056
0.010089863000755
0.0255396676457843
0.040446553857644
0.0501808046873167
0.0523442713844984
0.0466816420939864
0.0345733921603201
0.0183089977823726
0.000348077931438409
-0.0172653180485428
-0.0332430211835738
-0.0471334171895086
-0.059190393532009
-0.0701135690373324
-0.0807497368476049
-0.0918303708627884
-0.103792902839629
-0.116704347999776
-0.13028187633185
-0.143988885949718
-0.15717628221839
-0.169234957581406
-0.179725876680159
-0.188459645096525
-0.195509506767423
-0.201159508829784
-0.205808139385731
-0.209859934792188
-0.21363824102702
-0.217341378532981
-0.221046651593019
-0.224749237363316
-0.228412810093289
-0.23200941837878
-0.235536387813402
-0.239012343621902
-0.242465895163371
-0.245934074190924
-0.24948202936452
-0.253243295604386
-0.257466421679865
-0.262545043972967
-0.269009376853743
-0.277468434755317
-0.288510168154735
-0.302583678477099
-0.319896092426771
-0.340352336746145
-0.363550968812234
-0.38883106479676
-0.415352726790402
-0.442191280327422
-0.468430387789193
-0.49324618880417
-0.515978240185463
-0.536182111256816
-0.553655350130871
-0.568427610913779
-0.580710683904704
-0.590814980151578
-0.599051304843524
-0.605644279293404
-0.610682209701662
-0.614117340256854
-0.615814038490757
-0.61562664458786
-0.613479441222504
-0.60942169176061
-0.603640154601881
-0.596426069670361
-0.588108482697308
-0.578976377363102
-0.569214939819578
-0.558875318039091
-0.547884990778188
-0.536092464414648
-0.523330290031412
-0.509476687914133
-0.49449838698589
-0.478464352649487
-0.461529749823629
-0.443898901459101
-0.425782249998105
-0.407363434951801
-0.388788159868281
-0.370178031516607
-0.351663239445659
-0.3334213885753
-0.315707810490248
-0.29886452633557
-0.283299089962733
-0.269430371694829
-0.257606587754003
-0.248011078801526
-0.240580341044802
-0.234961688152905
-0.230530963119296
-0.226474438478692
-0.221919030918203
-0.216079542026022
-0.208387358188715
-0.198572927036606
-0.18668975968032
-0.173083643366064
-0.158321463207229
-0.143097237209504
-0.12813018035833
-0.114065015958516
-0.101382540383496
-0.0903298781980843
-0.0808824848474366
-0.0727497690876036
-0.0654306412319966
-0.0583145864797862
-0.0508108092228525
-0.0424770455839213
-0.0331155616148076
-0.0228097257027798
-0.0118898844448707
-0.000837600976327057
0.00984434341530598
0.0197591048026751
0.0287054332757358
0.0367082368237957
0.0439866322709559
0.0508728843100826
0.057706836637703
0.064734723613553
0.0720388660432229
0.0795162954859092
0.0869111603989872
0.093890791049299
0.100142774610251
0.105464385838851
0.109818529856316
0.113341344506514
0.11630196074828
0.119029015984015
0.121826672993429
0.124903478138836
0.128331706601827
0.132045565159594
0.135876569783299
0.139616063035779
0.143089699998703
0.146226734411474
0.149107086176797
0.151971409074396
0.155185252295376
0.159159139527363
0.164240212947556
0.1706029061884
0.178170002518338
0.18658818588102
0.195265626164907
0.203459853742753
0.210390363415805
0.215347375047509
0.217775787072
0.217326767503817
0.213882212208173
0.207564244629345
0.198740733566334
0.188029847969685
0.17629635826629
0.164624799174612
0.154252859023987
0.146452878800704
0.142359051855876
0.14275166195388
0.147826462329053
0.156995176285472
0.168778015222986
0.180854453556475
0.190326642223943
0.194215444491845
0.19015278256764
0.177164724518855
0.156374626157301
0.131416964935027
0.108361788597809
0.0950199102772621
0.0996275767940368
0.129075018945775
0.187007718765435
0.272243970027316
0.377970958768331
0.492075366493442
0.598736505203928
0.681101669833783
0.724549207521221
0.719816109502705
0.665208260487446
0.567271927831603
0.439670081018848
0.300484567994025
0.16860401414894
0.0601035319218781
-0.0145114566954767
-0.051617407609723
-0.0541947796811282
-0.0302346059683717
0.00961376764706424
0.0545090378943507
0.0954444711871946
0.1264881379429
0.14513679321421
0.1519004040061
0.149377548149004
0.141135235396858
0.130679008414919
0.120715289718196
0.112798401531055
0.10734807200979
0.10394164398759
0.101741698737344
0.0999173484543937
0.0979495444789223
0.0957638670229256
0.093691504695039
0.092304836897809
0.092198272178725
0.0937857197922353
0.0971678881799697
0.102093946315937
0.108012725095874
0.114187264778941
0.119837752913552
0.124280502329545
0.127039174779631
0.1279136370137
0.126999474105677
0.124657879685356
0.121442418965494
0.117995890660708
0.114935894142738
0.112749959525061
0.111718883425997
0.111880267297606
0.113034810691293
0.114788121741555
0.116613206677884
0.117915939414719
0.11808962820446
0.116554607831039
0.112789975699265
0.10637057099594
0.0970188274847804
0.0846692464405445
0.0695286663364631
0.0521057403739125
0.0331840297744971
0.0137266728873153
-0.00527695132039058
-0.0229889782725409
-0.0388774268694929
-0.0528011433254905
-0.06499799886826
-0.075978488324229
-0.0863560436208353
-0.0966634558777013
-0.107206199933135
-0.117989432636403
-0.128732159038291
-0.138957369860244
-0.14812783152177
-0.1557881992261
-0.161676447042203
-0.165779285182761
-0.168323205541401
-0.169710243914483
-0.170420863091172
-0.17091220158941
-0.171537432846531
-0.172502975387239
-0.173867973725067
-0.175577949981244
-0.177514850907932
-0.179542160783073
-0.181528469057658
-0.183344594521881
-0.184842977466881
-0.185837220225974
-0.186100242301731
-0.185391379318357
-0.183509491145413
-0.180356495291219
-0.175989201760143
-0.170639677703103
-0.1646944934037
-0.158636845773364
-0.152967331005429
-0.148124656914301
-0.144425268595477
-0.14203269651964
-0.140957691060062
-0.141082610093175
-0.142199455719385
-0.14405021730158
-0.146360565776224
-0.148863002424393
-0.151311251328553
-0.15349084971337
-0.155229875557993
-0.156410012251071
-0.156974868459303
-0.156931855956457
-0.156345950253276
-0.155326709697152
-0.154012089739937
-0.152552673341769
-0.151098141311648
-0.149785521430132
-0.148727402713319
-0.147998310060672
-0.147618529973557
-0.147536719057099
-0.147615466079456
-0.147626657169144
-0.147264350012653
-0.146180600160837
-0.144044040375268
-0.140612823894931
-0.135805068543502
-0.129745055432105
-0.122766053202931
-0.11536172932364
-0.108094167835666
-0.101481181314146
-0.0958929668299039
-0.0914852981508572
-0.0881845748774307
-0.0857241286550049
-0.0837176189044858
-0.0817484533112364
-0.0794542588937353
-0.0765901630741145
-0.0730616286295667
-0.0689253436509457
-0.0643638191421596
-0.0596440449343359
-0.0550711856911273
-0.0509447008728272
-0.0475184114211134
-0.0449615554896264
-0.043318251180878
-0.0424687469629511
-0.0421041261908555
-0.0417311641292127
-0.0407214376972627
-0.0384079259664082
-0.0342165037957136
-0.0278047031911502
-0.0191720490419827
-0.00870919754139782
0.00283307075128585
0.0144534782250216
0.0250662247753612
0.0336860394892324
0.0395899708892751
0.0424200266502074
0.0422072302885902
0.0393195728340978
0.0343572059776605
0.0280314601866516
0.0210651851373051
0.0141394994309797
0.00789007001795561
0.00293238989172292
-0.000120670222332746
-0.000687705794652067
0.00168166874541947
0.00713978837482604
0.0153429883284733
0.025288491789563
0.0352669529656601
0.0430047894955539
0.0460383641889243
0.0423060949389789
0.0308727501453694
0.0126282595959854
-0.00924654399521147
-0.0292590225237446
-0.0401812785391625
-0.0342516819778798
-0.00485754816935038
0.0516200296355013
0.134241488334408
0.236687355775407
0.347535087760006
0.451761492936008
0.533296219276867
0.578148882421279
0.577414174323859
0.529403764410697
0.440306283825142
0.323124114770124
0.19509290385083
0.0742142015115943
-0.0242258361558756
-0.0903065590631151
-0.120727676851327
-0.118525908008443
-0.0915198849905293
-0.0500243332098069
-0.00445969703812639
0.0366053966306999
0.0676431687612073
0.086490775358254
0.093924212191748
0.0927372947045989
0.0866341957007823
0.0792165127659067
0.0732607819348081
0.070371261614021
0.07098685163937
0.0746440464562833
0.0803624225608071
0.0870255374795439
0.0936675374989567
0.0996267331315471
0.104574057890414
0.108454510451584
0.111389588324225
0.11358183683184
0.115246634958097
0.116579418629494
0.117754084351782
0.118941402395736
0.120333233206872
0.122157904842816
0.124674837448163
0.128143297887778
0.132769962533847
0.138649309214551
0.145715727240485
0.153724294832181
0.16226894793612
0.170835298866538
0.178874795513953
0.185880766946231
0.191447005164467
0.195295770847538
0.197272523163723
0.197315725129191
0.195417672821158
0.191593565122828
0.185870647126753
0.178299415368324
0.16897835919614
0.158076805774236
0.145840402590199
0.132571117373878
0.118585338951127
0.104164413308647
0.0895167569520405
0.0747671682130969
0.059978260784664
0.0451954419932423
0.0304966526046749
0.0160262461648766
0.0019999446326189
-0.0113191736034194
-0.0236618354601397
-0.0347938753562303
-0.0445439185697229
-0.0528129421941341
-0.0595711471358726
-0.0648526466735984
-0.0687560553988383
-0.0714510783041902
-0.073182879437781
-0.0742626612938791
-0.0750369819028745
-0.0758382386349317
-0.0769293900396928
-0.0784614504515567
-0.0804592454117232
-0.0828406534160044
-0.0854620508410013
-0.0881735948893633
-0.0908660021554846
-0.093495960200044
-0.096087155365009
-0.0987129287960478
-0.101470515163928
-0.104455178510962
-0.107738525869107
-0.111352522796213
-0.115280338965766
-0.119455565796457
-0.123770702891619
-0.1280938513681
-0.132290664958047
-0.136248353596323
-0.139899891397006
-0.143247451360391
-0.146382160225755
-0.14949300794301
-0.152855100500168
-0.156790667783551
-0.161605796922509
-0.167517512054522
-0.174593400378652
-0.182725051754624
-0.191646563989194
-0.200993970186888
-0.210387336194494
-0.219510790559247
-0.228169041821609
-0.236308834378825
-0.244004656910269
-0.251415842366936
-0.25872626520944
-0.266079423517229
-0.273522028969157
-0.280968459152285
-0.288195684059154
-0.294872599823856
-0.300619324795826
-0.305083066529839
-0.308011009761263
-0.309300264151427
-0.309011305270712
-0.307342922492415
-0.304579330584387
-0.301028732992409
-0.296973839282118
-0.292648686284975
-0.288245409376307
-0.283942897892744
-0.27993982482878
-0.276470581509881
-0.273786716230371
-0.272098545094712
-0.271487973467285
-0.271818115094469
-0.272672145365124
-0.273349705210071
-0.272934754696426
-0.270428671153144
-0.264923393614304
-0.255777546256965
-0.242756567852581
-0.226105230849673
-0.206534627593644
-0.185122253904832
-0.163140374383806
-0.141842499284519
-0.122248737508882
-0.104974963252226
-0.0901441479867143
-0.0773991395607998
-0.0660087966593931
-0.0550335420444128
-0.0435026168303996
-0.0305591332263642
-0.0155485269334227
0.00194693076890317
0.0221014475082164
0.0448309994268199
0.0697437892537362
0.0960546938708316
0.122495897076228
0.147284333757193
0.168217209797523
0.182950804644021
0.189473797711191
0.186722529810126
0.175217526457131
0.157547843340727
0.138512208709687
0.124759516287064
0.123862043432777
0.14289257056827
0.186732266770952
0.256466720621422
0.348287619559871
0.453274826043522
0.558280567404394
0.647896967983158
0.707210025752024
0.724795349479771
0.695267647510857
0.620720373234452
0.510611852921383
0.380035808644034
0.246753502190312
0.127715440044716
0.0359344657629774
-0.0215594248172412
-0.0442940566700568
-0.0374937014224504
-0.0101748439555993
0.0272097744709063
0.0649803680626547
0.0958414302407073
0.115673629913052
0.123518480900789
0.120945648278462
0.111084047723988
0.0976024886773096
0.0838644444220976
0.072385178390036
0.0646186192594946
0.0610206662937193
0.0612894544559483
0.0646738783674444
0.0702613241088166
0.0771906118339231
0.0847731204595033
0.092533799596546
0.100198892200051
0.107658636881351
0.114925450382246
0.122097250627573
0.129326390826193
0.136789554054408
0.144653892468263
0.153039355283417
0.161984014124494
0.171424000334696
0.181198866250907
0.191086164571588
0.200858358647079
0.210345279909418
0.21948079784394
0.22831575812393
0.236989652808459
0.245666870901574
0.25445479719177
0.263326788285337
0.272071662350723
0.280283773845969
0.287397201465584
0.292757898572028
0.295721023038542
0.295756807476216
0.292546102600067
0.286046098028264
0.276509133956218
0.264444661438596
0.250526724561827
0.23546486352591
0.219870392846323
0.20415643307727
0.188504134939966
0.172908922886553
0.157294369330722
0.141656283112288
0.126185131383797
0.111317528195996
0.0976879622394923
0.0859841241811856
0.0767422562875591
0.070141618527007
0.0658620116365455
0.0630537604724247
0.0604398846198533
0.0565340121843466
0.0499254963333349
0.0395645749363682
0.0249807982235449
0.00638714335459815
-0.0153464159628039
-0.0388340225593377
-0.0623921005668219
-0.0842902609985999
-0.10299555422171
-0.117379441222058
-0.126863821408033
-0.131487388185981
-0.131880071125061
-0.129144717295435
-0.124661488743463
-0.119847872845694
-0.115919829095969
-0.113702415951249
-0.113529408920709
-0.115252638304903
-0.118357175809681
-0.122153524960448
-0.125998710790189
-0.129490265673666
-0.13258385346424
-0.135605824343386
-0.13916092039517
-0.143963895906626
-0.150642855749568
-0.159566025076305
-0.170732828811235
-0.183750137783251
-0.197892595297595
-0.212227866886705
-0.225776673047826
-0.237674442013953
-0.247305272044295
-0.254387248295855
-0.258998586508243
-0.261544866674377
-0.262677263337262
-0.263178230623352
-0.263833113961314
-0.265304269892563
-0.268021013672417
-0.272096478671621
-0.277281889267719
-0.282968636657587
-0.2882466940911
-0.292022058569523
-0.293185080018661
-0.290807310587306
-0.284331184212758
-0.273710060454286
-0.259460546490606
-0.242605842817035
-0.224514835926549
-0.206669371942043
-0.190412609181361
-0.176737627200006
-0.166165376997093
-0.158737507671787
-0.154118943745838
-0.151775069316028
-0.151166927411168
-0.151901888659351
-0.153790406842509
-0.156789540567966
-0.160852525871555
-0.165739178662287
-0.17086330393419
-0.175253088355864
-0.177675963651999
-0.176933565784019
-0.172274335098414
-0.163816013473982
-0.152835916790007
-0.141789261991213
-0.133962461128126
-0.132754259888411
-0.14068570466806
-0.158344203666815
-0.183538118702094
-0.210950233081721
-0.232514909615185
-0.238604737134759
-0.21991795354674
-0.169747936623869
-0.0861451249228078
0.0265928951306342
0.157602931009452
0.290594878599838
0.40640131483942
0.486516313593227
0.516883620250215
0.491036372578806
0.411766552238514
0.290824541687469
0.146647670042394
0.00064719376440437
-0.127027507955572
-0.221213104321865
-0.274101183875696
-0.285825439378675
-0.263332979724856
-0.218016975209606
-0.162814617731477
-0.109487133039517
-0.0666336193695574
-0.0387241124769793
-0.0261560125629939
-0.0261131670867713
-0.0338793586461985
-0.0442354876700544
-0.0526340738209067
-0.0559621549316581
-0.0528356167096808
-0.0434803044901132
-0.0293260734716759
-0.0124634686859627
0.00490236432794479
0.0209028983607464
0.0343068532639907
0.0446506533579921
0.0522068528487745
0.0578202343591303
0.0626584124182111
0.0679346771268523
0.0746616807318397
0.0834830853387455
0.0946080336529569
0.107845982575111
0.122715152760413
0.138583818220586
0.154802995020693
0.170799937738381
0.186119330335746
0.200417590158516
0.213430008807379
0.224936121679444
0.234743826495449
0.242699660901711
0.248717290597439
0.252805463650403
0.255075053152947
0.255713090443738
0.254926410580648
0.252871977016494
0.249598224610582
0.245018741151817
0.23892859967363
0.231060184114042
0.22116448020647
0.209098078363011
0.194895743818993
0.178812261019854
0.161323976543208
0.143088753602034
0.124871313563833
0.107447070172611
0.0915000643078078
0.0775301165929268
0.0657830634094859
0.056216971971894
0.0485147241935755
0.0421466500252752
0.0364759809788154
0.0308882732392365
0.0249180618690632
0.0183445932347835
0.0112340783700751
0.00391747378788633
-0.00309209816041657
-0.00922319446501279
-0.0139812358429166
-0.0170617241290612
-0.0184140040993586
-0.01824225526596
-0.0169485918096238
-0.0150385709436632
-0.0130163655830655
-0.0112941202687591
-0.0101309805187297
-0.0096071656581961
-0.00963114513941479
-0.00997455680820944
-0.0103284563485824
-0.0103733483733421
-0.00985296730163516
-0.00863886008817183
-0.00677153468849635
-0.0044658916798074
-0.00207450462368991
-1.19448897482156e-05
0.0013446875330909
0.00175335250459135
0.0011734396269866
-0.000221428967236419
-0.00208992409690351
-0.00401468475758052
-0.00561006821313619
-0.00661321153505831
-0.00693397191218539
-0.00665501439192073
-0.00598924380376604
-0.0052123016745829
-0.00459105460113796
-0.00432603278412364
-0.0045189711292131
-0.00516841774216781
-0.00618912265253531
-0.00744626763237778
-0.00879395945594208
-0.0101082709514564
-0.011307997762574
-0.0123609068061343
-0.0132785953130105
-0.0141070679415952
-0.0149205288624613
-0.0158217458214011
-0.0169450280579252
-0.0184511000222773
-0.0205017307570093
-0.0232087609801705
-0.0265653372289205
-0.030380492160756
-0.034244621759076
-0.0375488491755088
-0.0395664568202258
-0.0395845932980519
-0.0370568262973193
-0.0317386177218714
-0.023771339617158
-0.0136939157026466
-0.00237929729957354
0.00908968949425961
0.0195780425042894
0.0280573473705895
0.033735587355728
0.0361370924761386
0.0351247416800416
0.0308702596825564
0.0237899003030057
0.0144691797132865
0.00359939364548981
-0.00805991148792629
-0.0196920952631692
-0.0304222633278481
-0.0393282909364857
-0.0454912018162506
-0.048104866055028
-0.0466479107408769
-0.0410963465369229
-0.0321288307042311
-0.0212551318289318
-0.0107909056524648
-0.00361581138820296
-0.00269029198154253
-0.0103654113409398
-0.0275898872399605
-0.0531834778907369
-0.0833868697881026
-0.111894976920587
-0.130518141321239
-0.130492167999156
-0.104290246213596
-0.0476141967239311
0.0388897970698572
0.148681950315987
0.26954105893254
0.385103342923782
0.477571295339894
0.531100333872416
0.53511948370484
0.486765512188948
0.391761476288003
0.263437986929107
0.120086159929695
-0.018708426531386
-0.135830482191818
-0.219590808503516
-0.265246638246489
-0.274895356147865
-0.255984076998325
-0.218979714853608
-0.174853012102231
-0.132955015221804
-0.0996637270819851
-0.0779287939780143
-0.0676139410573447
-0.0663802586644383
-0.070790552257695
-0.0773410061677473
-0.0832157774233926
-0.0866762826421385
-0.0871039455417022
-0.0847880965441108
-0.0805808606306119
-0.0755338584244145
-0.0706006404284326
-0.0664483950580247
-0.063384650831452
-0.0613775595917344
-0.0601352496153839
-0.0592094110621367
-0.0580965345380528
-0.0563220233622597
-0.0535030570343012
-0.0493921129364895
-0.0439034039000261
-0.0371212364809295
-0.0292864480388832
-0.0207580743407137
-0.0119531062587037
-0.00327540946987497
0.00494875398104952
0.012510905944712
0.0193257616544044
0.025403289459767
0.0307999460534198
0.0355670407176938
0.0397120765467732
0.0431809747167795
0.0458595709302522
0.0475864613387168
0.0481688194245184
0.0473970860030128
0.0450597143398598
0.0409621735889857
0.0349542191702779
0.026966502188611
0.0170525222274924
0.00542595667469278
-0.00752070401880264
-0.0212293074719993
-0.0350269239505193
-0.0482093221957041
-0.0601410432327022
-0.0703494130681937
-0.078589747527568
-0.0848658446053937
-0.0894017468611918
-0.0925739062739828
-0.09482283031776
-0.0965666198093656
-0.0981347369254752
-0.0997313123817434
-0.101427854514407
-0.103179262976778
-0.104855480393827
-0.106281988546634
-0.107283227657933
-0.107723012295674
-0.107535906532612
-0.106744494197063
-0.10546003290899
-0.103867423041852
-0.102198117677968
-0.100695197930161
-0.0995738175287917
-0.0989798161976859
-0.098951201341655
-0.0993904037054758
-0.100056760507833
-0.100586440830593
-0.100541364977656
-0.0994815972029974
-0.0970492654835989
-0.0930477871379807
-0.0874992090108725
-0.0806655467823151
-0.0730269323777926
-0.065218578135022
-0.057937277786335
-0.0518335709678406
-0.0474067185561659
-0.0449178318440258
-0.0443345575137618
-0.0453194821226582
-0.0472716380927607
-0.0494229781496811
-0.050978779924539
-0.0512761384295
-0.0499243038851215
-0.0468904962852546
-0.0425069681707245
-0.0373958880900304
-0.0323304402319924
-0.0280658913160199
-0.0251795302427619
-0.0239537777328283
-0.0243250489922816
-0.0259053571324519
-0.0280675934306134
-0.030072388662612
-0.0312073453690366
-0.0309098409170167
-0.0288522197306884
-0.02498015570766
-0.019506260024977
-0.0128670839688019
-0.00565179685348226
0.00149134160540134
0.00796437342387954
0.0133341613545563
0.017434692431933
0.0204349346635973
0.022850578147798
0.0254858922601707
0.0293060652488529
0.0352570029279573
0.0440641884192472
0.0560512948864835
0.0710201279740751
0.0882242322236429
0.106449407541495
0.124189613870626
0.139883585435452
0.152163083985868
0.160061971809373
0.163145802472134
0.161540784878038
0.155863727628942
0.147076036462161
0.136300896276361
0.124649794421648
0.113099631326592
0.102444307379787
0.0933186276560814
0.0862654537303011
0.0817984713227002
0.0804101136915796
0.0824904282056507
0.0881559193235415
0.0970294188667237
0.108049690385404
0.119408615161497
0.128703908340926
0.133352581338127
0.131239373362259
0.121489148419423
0.105175589255729
0.0857373524877283
0.0688900888849583
0.0619085685059432
0.0722987797245531
0.106055662414135
0.165862112009381
0.24967821253439
0.350156218915893
0.455181182308305
0.549595995022671
0.617871463021506
0.647199556064408
0.630304290341215
0.56725208691168
0.465736880624549
0.339687238010712
0.206494618765707
0.0835474403693949
-0.0150623154989575
-0.0808785093241507
-0.111996887965187
-0.1125049174481
-0.0907698469427428
-0.0571315508570554
-0.0216046318853035
0.00791786575143682
0.0266756729713892
0.0332157833121551
0.0288719197592
0.0168092123013013
0.000928506126351362
-0.0151130453513631
-0.0285923994782059
-0.0380497475913833
-0.0432752837914545
-0.0450380021820361
-0.0446737631933231
-0.0436516481981018
-0.0432153674108082
-0.0441597262139578
-0.0467604343138925
-0.0508373985738327
-0.0559044418317071
-0.0613473785437285
-0.0665786474840535
-0.0711360644769491
-0.0747177280686299
-0.0771662241678033
-0.078427074455744
-0.0785069064724356
-0.0774482731587451
-0.0753255660585576
-0.0722557631209241
-0.0684125114429128
-0.0640327234832702
-0.0594094149286711
-0.0548701138992124
-0.0507447767433102
-0.0473301049121803
-0.0448586746709818
-0.0434812410664116
-0.0432680508763445
-0.0442294523155434
-0.0463489630920184
-0.0496166213359725
-0.0540500189585507
-0.059695467752575
-0.0666098542090518
-0.0748309846954897
-0.0843472837732891
-0.0950755132775532
-0.106849600910247
-0.119418580518137
-0.132450373941647
-0.145541031127857
-0.158233277639074
-0.170049902617092
-0.18054418526709
-0.189361700344436
-0.196299124889073
-0.201341361209596
-0.204662061099625
-0.20658369731474
-0.207506620668052
-0.207825989059149
-0.207857465484377
-0.207787387021813
-0.207653998777096
-0.207357797806749
-0.206694277366685
-0.205401598521463
-0.203216574034268
-0.199932395355261
-0.195450248278272
-0.189815549569392
-0.183229650147295
-0.176030732589047
-0.168643560284716
-0.161505487597761
-0.154983198888153
-0.149298523660096
-0.144481177635483
-0.14036150754859
-0.136607992602247
-0.132803644671185
-0.128544826668428
-0.123538465181694
-0.117671966250951
-0.111035740045745
-0.103890466834327
-0.0965871277569706
-0.0894624241948484
-0.082740271624776
-0.0764685214476259
-0.0705095173288334
-0.0645871898656315
-0.0583771655764587
-0.051614565986545
-0.044189942817033
-0.0362076842482786
-0.0279912019991254
-0.0200319821768357
-0.0128922038257644
-0.00708104635951754
-0.00293148670515248
-0.000506016878813849
0.000444539377927501
0.000454978007409555
0.000252859239801407
0.000615681041385484
0.0022091166998293
0.00544465571650902
0.0103919984939253
0.0167681825179169
0.0240054286147332
0.0313793166860601
0.0381643010021323
0.0437785795424167
0.0478854734698612
0.0504315796567661
0.0516192656605096
0.0518279110809981
0.0515097860033115
0.0510891694559699
0.050887267021668
0.0510844438353052
0.0517204164092748
0.0527257377124577
0.0539743956134651
0.0553458584991444
0.0567838908403082
0.058339015171217
0.0601831721079937
0.0625903230813969
0.0658847801802941
0.0703669822929559
0.0762312784133441
0.0834914909404089
0.0919292494971956
0.101078383022218
0.110254893146181
0.118634337780237
0.125366959259822
0.129708752173381
0.131138875287467
0.129434970092512
0.124689775232466
0.117271761496249
0.107751535315786
0.0968254948162469
0.0852634842486114
0.0738894853181308
0.0635811973967645
0.0552559684324042
0.0498059781523119
0.0479589463288153
0.0500691592225894
0.055878602329145
0.0643182572937348
0.073435048765345
0.0805236786612053
0.0825118271422333
0.0765932293270507
0.0610319908146406
0.0359855604773651
0.00413303313070362
-0.0291248017765071
-0.0560845219185889
-0.067855020578013
-0.0560739111843741
-0.0149403135513118
0.056877443844191
0.15496719851219
0.268976334534344
0.383737996548675
0.481660815469592
0.545983909886524
0.564216071742826
0.530942330074804
0.449257860582202
0.330389633382878
0.191526549452403
0.0523654512545917
-0.0687684568145561
-0.158275566740425
-0.209351991279987
-0.222415933596963
-0.203987054938956
-0.164484249345177
-0.115596090458087
-0.0678689161379566
-0.0289918420664976
-0.00300955425002791
0.00955985010681763
0.0109217754356231
0.00484228131899944
-0.00454069904024248
-0.013669128365994
-0.020133396314592
-0.0228355747812349
-0.021823911351425
-0.0179287511868125
-0.0123371726943902
-0.00621644545266426
-0.000452899610960597
0.00447132481963257
0.00847603208806951
0.0117893046931903
0.0148055973800912
0.0179381066463425
0.0215004339170403
0.0256403947415615
0.0303339626811463
0.0354322717577346
0.0407421377540363
0.0461131086604848
0.0515032922526013
0.0570027965589448
0.062806470089079
0.0691433559815667
0.0761839291725843
0.0839531546911794
0.0922753232936794
0.100766459561229
0.108875947799804
0.115966218609582
0.121411678804768
0.124696189370687
0.125490643265183
0.123696712053392
0.119448751756477
0.113073063722582
0.105012001377634
0.0957287239214593
0.0856143821274606
0.0749203294527307
0.0637320950640844
0.0519906680634087
0.0395538518644894
0.0262802186535863
0.0121133664229678
-0.00285430681780943
-0.0183521951101163
-0.0339408036475002
-0.0490556797833973
-0.0630768340484731
-0.0754126820534631
-0.0855868751227013
-0.0933156834196784
-0.0985633776836383
-0.101564641210969
-0.102807232229424
-0.102974547581812
-0.102854841939187
-0.103229613925222
-0.10475706246961
-0.107868078627474
-0.112692599793261
-0.119032294807739
-0.12638941106147
-0.13405070725899
-0.141212346022357
-0.147120984858457
-0.151201992874511
-0.153149134127803
-0.152959742704051
-0.150912112631336
-0.147494221003349
-0.143302665536733
-0.138936052863109
-0.134906190963354
-0.131582498640993
-0.129172298852291
-0.127727608360335
-0.127163475112663
-0.127276179755769
-0.127759056104304
-0.128223200307556
-0.128233754282661
-0.1273670467956
-0.125282296955603
-0.121790493980633
-0.11689898954065
-0.110815734092946
-0.103909514121262
-0.0966366789998389
-0.0894551098605169
-0.0827487471949458
-0.0767802108172041
-0.0716779219094281
-0.0674528619040318
-0.0640330904989628
-0.0613028264736464
-0.0591358465202579
-0.057417609591062
-0.0560547631086679
-0.0549736708476884
-0.0541116354073605
-0.053406147681422
-0.0527884390656344
-0.0521865011109211
-0.0515387036319186
-0.0508132398642659
-0.0500236104174791
-0.0492291215469406
-0.0485134885470505
-0.0479435022780937
-0.0475202029766349
-0.0471421570396148
-0.0465998874020532
-0.0456113489031871
-0.0438939382436151
-0.0412546836608285
-0.0376723237009228
-0.0333456965860343
-0.0286914859501621
-0.0242874135604468
-0.0207702576056232
-0.0187086030958102
-0.0184763544671013
-0.0201536773236462
-0.0234767246184212
-0.0278474414631421
-0.0324030105603031
-0.0361344837345895
-0.0380375520625484
-0.037274749088744
-0.0333261791435661
-0.0261044617994866
-0.0160103131001348
-0.0039108232746572
0.00896512805200796
0.0212023945365727
0.0314166668434715
0.0384722760180311
0.0416578132525091
0.0407849023824401
0.036192472006224
0.028661256089142
0.0192651729999996
0.00920043629538964
-0.000365915382295958
-0.0083998249719407
-0.0140510906776995
-0.0166699392826541
-0.0158235317594336
-0.011347190218744
-0.00344840268031321
0.00714936226181659
0.0190730742343204
0.030257112989882
0.0380796126600747
0.0397419547151277
0.0328944495647204
0.016425782376037
-0.00875396470426963
-0.0391685922251003
-0.068709629440065
-0.0892258996074278
-0.0918104288257622
-0.068640510458839
-0.0150349107274151
0.0687487304478147
0.176489558592175
0.296164191196427
0.411467535968701
0.504539373525236
0.559398731238158
0.565328165405954
0.51936676227356
0.427221424454854
0.302281207493169
0.162925136170727
0.02878988868629
-0.0830568333456701
-0.161106533302865
-0.200925506979459
-0.205007469529062
-0.181220360022995
-0.140411406588572
-0.0938397067715224
-0.0510210882196706
-0.0183597968823558
0.00131209260535712
0.00839134987304349
0.00560953221046092
-0.00310065832405919
-0.0136911561505867
-0.0228282713535837
-0.0283617428857682
-0.0294285558671603
-0.0262641212771842
-0.0198374303569017
-0.0114359994767977
-0.00230594309390396
0.00658769570709494
0.0146623070794102
0.0217032813245857
0.0277799215366694
0.0331406719554507
0.0381225594216715
0.0430881054202412
0.0483841491516203
0.0543083538182034
0.0610723749534995
0.0687615807309148
0.0773022035828787
0.0864511635991084
0.0958193431605055
0.104928514666703
0.113290625332667
0.120490579529248
0.126252744001165
0.130476889956174
0.133238217650287
0.134754544234957
0.135329187121693
0.135280578401476
0.13487059419106
0.1342438518412
0.133389462552369
0.132133918808838
0.13016827664576
0.127105155566635
0.12255356942749
0.116195212530925
0.107846347878842
0.0974942406151845
0.0853038044051489
0.0715964698338636
0.05680798895593
0.0414346405011745
0.0259781557383579
0.0108986932183487
-0.00341762673648043
-0.016674340322483
-0.0286655117883841
-0.0392668591395054
-0.0484226964392004
-0.0561330605288039
-0.0624435799403316
-0.0674386725427734
-0.071236447782988
-0.073981848179137
-0.0758346023628601
-0.0769513923608655
-0.0774661256168352
-0.0774755654519312
-0.0770373404287615
-0.0761831105469407
-0.0749433385993373
-0.0733747960424042
-0.0715801285637878
-0.0697111256476902
-0.0679525342610558
-0.0664894162528195
-0.0654665615826147
-0.0649519468154408
-0.0649162958764808
-0.0652367924804413
-0.0657257954745605
-0.0661772061861113
-0.066416540612689
-0.0663383582539489
-0.0659185332206793
-0.0651988292426777
-0.0642536665079787
-0.0631575802957485
-0.0619714649284983
-0.0607555864230656
-0.059602075566421
-0.0586667823643392
-0.0581769603461856
-0.0583998998917638
-0.0595747698958407
-0.0618274185493752
-0.0650976265122424
-0.069106463549038
-0.0733794254256246
-0.0773238765154282
-0.0803429866777347
-0.0819578397571444
-0.0819073195102019
-0.0802015582203149
-0.0771169505510051
-0.0731357729379992
-0.0688474444382061
-0.0648372563893006
-0.0615889797151809
-0.0594201969184999
-0.0584570166514346
-0.058643149218935
-0.0597713657442927
-0.061524814268381
-0.0635203108224133
-0.0653520650817988
-0.0666381648241139
-0.067070961442228
-0.0664669121183808
-0.0648049720418849
-0.0622397004341031
-0.059078777269928
-0.0557244485166444
-0.0525909610357679
-0.0500198403461791
-0.0482172979805254
-0.0472316854643938
-0.046975830581601
-0.0472838149020155
-0.0479797760856638
-0.0489324061064924
-0.0500748368156114
-0.0513832182387738
-0.052823050986661
-0.0542845276149623
-0.0555330577815442
-0.0561975560955524
-0.0558078842691097
-0.0538771421021965
-0.0500093270584647
-0.0440037572425226
-0.0359281119248432
-0.0261416122274135
-0.0152645327638955
-0.00410396663932415
0.00644610610691904
0.0155110740165597
0.0223322376045314
0.0263425121026988
0.0272150520180372
0.0248834935674304
0.0195374761234793
0.0116009218696757
0.00170156507221334
-0.00936241338918082
-0.0206584794900943
-0.0311651527501262
-0.0398381680245939
-0.0457088483833728
-0.0480196457668232
-0.0463890759958732
-0.040981390928459
-0.0326388854059845
-0.0229218604553743
-0.0139993487972346
-0.00834903318707985
-0.00826101691942867
-0.015195346602668
-0.0291076810994541
-0.0479134828727537
-0.0672862917767827
-0.0809600549670937
-0.0816193227266572
-0.06232116075484
-0.0182257410249166
0.0517360214064079
0.14370628802662
0.24866587851529
0.353364725905912
0.44239005348019
0.50103440742023
0.518359581100242
0.489717725411968
0.418050878086571
0.313557938811283
0.191737476963473
0.0702634313709676
-0.0345221823924895
-0.110627230435741
-0.152244333095991
-0.16007963561698
-0.140276645277094
-0.102375520638348
-0.0569161916851737
-0.0132744805002127
0.0218437458589925
0.0450609047204616
0.0561798233583987
0.0574401830648117
0.0524706383471026
0.0452228241049434
0.0391053559510615
0.0364375265950321
0.0382456330488835
0.0443523582904748
0.053670107006926
0.0645989396309025
0.075438782827269
0.0847442550533906
0.0915728228192894
0.0956007760664039
0.0971056785601347
0.0968364674255399
0.0958096385097521
0.0950786159888964
0.0955225651412793
0.0976922087254897
0.101736106359388
0.107413526724979
0.114181967638063
0.121332088794539
0.128134260293307
0.133961877447053
0.13836726171037
0.14110322940443
0.142101108683195
0.14142713483648
0.139239538801429
0.135759331880773
0.131254393289257
0.126025858419426
0.120382858149805
0.114597521100525
0.108843987414453
0.103137340466783
0.0972949274791921
0.0909400751761183
0.0835570336136917
0.0745898272809219
0.0635625132054081
0.0501903391125816
0.0344539807343496
0.0166210011803564
-0.00278574736708217
-0.0230603050595806
-0.0434077419985149
-0.0630420947675926
-0.0812743042499133
-0.0975810360710134
-0.111647991327202
-0.123382569036772
-0.132893108158641
-0.140437398372478
-0.146350770852219
-0.150970405206788
-0.154574053561055
-0.157346920596209
-0.159381406161289
-0.160704204302041
-0.161317690944146
-0.161240160039577
-0.160532449657573
-0.159304968989108
-0.15770641352816
-0.15590099102102
-0.154042969181696
-0.152255544508683
-0.150617154255792
-0.149155067763427
-0.147844987025009
-0.146616081567543
-0.145361925579345
-0.143957923010603
-0.14228439386858
-0.140251831793499
-0.137822407865171
-0.135021684646419
-0.131937567702587
-0.128708078813339
-0.125502557404726
-0.122500625140467
-0.119870506831522
-0.117745607175433
-0.116198097687664
-0.115211731317021
-0.114661754788624
-0.114313766652208
-0.113851549521856
-0.112935230529991
-0.111278962058629
-0.108727385854259
-0.105307120736433
-0.101235036277529
-0.0968775002197849
-0.0926697947802804
-0.0890169948808666
-0.0862025452787611
-0.0843274198102344
-0.0832930549014146
-0.0828290258190355
-0.0825558516509471
-0.082067314671327
-0.0810156074337406
-0.0791844653441041
-0.076537948666364
-0.073235172525198
-0.0696051283069424
-0.066081905366168
-0.0631090232139015
-0.0610306732868265
-0.0599946010736744
-0.0598926421031268
-0.0603580699750128
-0.0608244827244689
-0.0606332771684562
-0.0591623980058116
-0.0559437951850752
-0.0507430050996232
-0.0435884970352684
-0.034754036734678
-0.0247075635010873
-0.014042400850442
-0.00340332254848626
0.00658486159416902
0.0153823996347931
0.0225918417371986
0.0280064998173746
0.031647871451513
0.033786809738724
0.0349399130055852
0.0358310855383359
0.0373107567337177
0.0402332354324563
0.0453052746942828
0.0529323906973824
0.0630983398169386
0.0753126559464975
0.0886493999041249
0.101879185365474
0.113671612273401
0.122824147584479
0.128463581244512
0.130171673408085
0.12800696779196
0.122424571316675
0.114125828827614
0.103889883468392
0.0924415016164843
0.08039306237402
0.0682691675874664
0.0565900491639921
0.0459652033182303
0.0371394354144282
0.0309438671475808
0.0281332811033644
0.0291314501639358
0.0337467708103595
0.0409498951788673
0.0488134847028591
0.0546955606516374
0.0557011395609308
0.0493875213081907
0.0345992207833335
0.0122469394517256
-0.0141978128546433
-0.0387137870083841
-0.053396234888683
-0.0497908643194339
-0.0207275822034344
0.0376943588124251
0.1244423568543
0.232696127986955
0.350171577516704
0.460746012757392
0.547187832933977
0.594478767738051
0.592995595630782
0.540767944043384
0.44419123330291
0.316933279422889
0.177243186018404
0.0443094661770863
-0.0654288684577236
-0.141130814505657
-0.178952453933251
-0.181820121225163
-0.157834910457222
-0.117868614161605
-0.0730166558005291
-0.0324894054003417
-0.00231091444159938
0.0150637099653479
0.0203295888564317
0.0163797888766922
0.00714259987359958
-0.00349809529119707
-0.0124930387954815
-0.0180336268454495
-0.0195845600954824
-0.0176319273731911
-0.0132754391035796
-0.00779554774127022
-0.0022987277406071
0.00249971488233967
0.0063422683602101
0.00936957335925974
0.0119809079237428
0.0146674602961266
0.0178645391086252
0.0218538066134377
0.0267274608000767
0.0324078417470318
0.0387027138837693
0.0453712213988176
0.0521783877222173
0.0589249733514944
0.0654509585313134
0.071620740648227
0.0773031956582324
0.0823592792980353
0.0866451074828827
0.0900313024320385
0.0924316778496835
0.093828484532551
0.0942802251761343
0.0939029380837991
0.092825600330132
0.0911313422845068
0.0888041326852077
0.0857018441055715
0.0815696724204691
0.0760947453565658
0.0689886096672094
0.0600749251136924
0.0493582739224786
0.0370559194377846
0.0235846254331849
0.00950581853878554
-0.00455832996389282
-0.0180195084673472
-0.0304083508435988
-0.0414321497788759
-0.050993929882984
-0.0591715099367875
-0.0661654890342289
-0.0722318734892312
-0.077615986719361
-0.0825003156422391
-0.0869732198338792
-0.0910207578366076
-0.0945409449933363
-0.0973773605877432
-0.0993657432322131
-0.100383179841356
-0.100387005347289
-0.0994325085585676
-0.097665623798777
-0.0952959027251657
-0.092561302716119
-0.0896965402603508
-0.0869115339640937
-0.0843793627238801
-0.0822284215285942
-0.0805336879095613
-0.0793067453034842
-0.0784900288945791
-0.0779634828042498
-0.0775693198246023
-0.077153864243711
-0.0766174868105873
-0.0759576550099209
-0.075288826240005
-0.0748277753596934
-0.074843128229328
-0.0755798996475888
-0.0771790986370966
-0.0796155243599685
-0.0826727824911197
-0.085964828468818
-0.0890013728416708
-0.0912843165841273
-0.0924166741795514
-0.0922038462870398
-0.0907273026929381
-0.0883716088319296
-0.085789270702215
-0.0837975304359556
-0.0832180931414931
-0.0846908585191679
-0.0885078512854811
-0.0945152558050084
-0.102116173785572
-0.110378505848502
-0.118221446809731
-0.124631985437973
-0.128856990679894
-0.130527530872755
-0.129694225458526
-0.126776773211748
-0.122449636138561
-0.117495663466777
-0.112660739701365
-0.108537432969986
-0.105495895403649
-0.103667719712167
-0.10297582501259
-0.103193920321619
-0.104014866034577
-0.105108926335187
-0.106159860257096
-0.106877200834199
-0.106993574183052
-0.106262445588953
-0.104471368902194
-0.101478387170625
-0.0972671101700406
-0.0920036138736971
-0.0860708722414152
-0.0800577835230142
-0.0746903059964176
-0.0707082925615445
-0.0687080973115976
-0.0689834264132344
-0.0714024459503462
-0.0753565622494259
-0.0798054297620689
-0.0834245308451086
-0.0848382567696301
-0.0828969611082111
-0.0769377575733014
-0.0669638980482705
-0.0536916054750523
-0.0384447080783627
-0.022917397732479
-0.00886096844929715
0.00223023964557766
0.00936124277890692
0.0121578558471715
0.0108530280772725
0.00615988444185046
-0.000920105952574491
-0.00929482856704952
-0.0179336178715972
-0.0259447944230382
-0.0325793231011539
-0.0371882026501352
-0.0391775676244791
-0.0380074176410161
-0.0332667339489623
-0.0248309394272486
-0.0130714831147351
0.000949561025254507
0.0153920608730127
0.0277501004481389
0.0352240357716506
0.0353481731416133
0.0267859604318361
0.0101220398610328
-0.0115753719165371
-0.0326541882136481
-0.0454130106710326
-0.0413165427997962
-0.0127619022729091
0.0449200594491768
0.131686110198239
0.241725905342659
0.363542562264114
0.481356020162042
0.577699063273807
0.636740426303714
0.647610774520332
0.606915044999214
0.51974480617515
0.398851864228828
0.2621264929246
0.12899257806543
0.0166259920319602
-0.06308248231114
-0.105158807831366
-0.111540116595211
-0.0896425708082975
-0.0500341427698274
-0.0038724673875322
0.0392935422164548
0.0729559978668873
0.0941646468198721
0.103212807030436
0.102742056225088
0.0965865149471737
0.0886606319106068
0.0821134744185556
0.078861254475306
0.0795008522707464
0.0835248015249206
0.0897149353314227
0.0965874855544575
0.102786632364738
0.107361329164242
0.109898424750888
0.110516298946073
0.10974578696303
0.108340109282792
0.107063468916448
0.106507955762118
0.10697873314353
0.108468163195197
0.110714445386572
0.113317104095737
0.115868259409878
0.118059236984132
0.119735264512347
0.120891000166717
0.1216191169589
0.122036805986751
0.122217607454594
0.122149342310213
0.121727299991816
0.120780085566818
0.119116753764025
0.116579047019443
0.113081718553794
0.108627061664965
0.103286848937013
0.0971551708714131
0.090286976715025
0.0826456423856538
0.0740842179147911
0.064376475207727
0.0532967482762544
0.0407274380217563
0.0267581173008885
0.0117378083024464
-0.00374501132412126
-0.0189559326785108
-0.0331572151210514
-0.0457580245041337
-0.0564284632701744
-0.0651454428804912
-0.0721598431727924
-0.0778982442813842
-0.0828313628081809
-0.0873493159319021
-0.0916787508845718
-0.0958609595745844
-0.0997890908765992
-0.103283697803918
-0.106175500206517
-0.108365626187544
-0.109845324173758
-0.110673908809001
-0.110928955456418
-0.110651418449586
-0.109808277707899
-0.108287552940837
-0.105928637592831
-0.102579315646461
-0.0981627367682198
-0.092734294068813
-0.0865100230183618
-0.079854829431727
-0.0732296609987007
-0.0671089646445666
-0.0618894299743528
-0.0578144550000204
-0.0549342119934973
-0.0531097474584273
-0.0520555143358377
-0.0514042289103504
-0.0507754812618567
-0.0498347439442595
-0.0483373846771255
-0.0461575168512095
-0.043301961625941
-0.039907260677151
-0.0362163993807915
-0.0325344730961382
-0.0291688203699383
-0.0263659678211117
-0.0242608778812281
-0.0228512686965596
-0.0220024459502792
-0.0214795502626202
-0.0209975812003444
-0.0202768083431515
-0.019092513447432
-0.0173121362996461
-0.0149172209355062
-0.0120097062371565
-0.00880187685188407
-0.00558886861219506
-0.00270451941742832
-0.000466073009359803
0.00088131716184322
0.00120655043473798
0.000509667535406621
-0.00108982118455554
-0.00338782898581122
-0.00614117631962925
-0.00910913041726106
-0.0120798631260863
-0.0148775315359288
-0.0173534894889417
-0.0193714129962475
-0.020798762913847
-0.0215150169820196
-0.0214410033427432
-0.0205850576993644
-0.0190927471051099
-0.0172803074759703
-0.0156309250594001
-0.0147397724279101
-0.0152077103590978
-0.0175009948459165
-0.0218094795805196
-0.0279430505067105
-0.0353017765975519
-0.0429395148774597
-0.0497173824093997
-0.0545190267953056
-0.0564808191648111
-0.0551826294881419
-0.0507520310403814
-0.0438560094969093
-0.0355838210065993
-0.027252853809102
-0.0201864275483909
-0.0155132723748962
-0.0140248663654079
-0.016106327105466
-0.021737709686157
-0.0305504817258607
-0.0419186980869747
-0.055063216996356
-0.0691483199689898
-0.0833540456577613
-0.0969160997684208
-0.109138111515789
-0.119394750883252
-0.127152969258766
-0.132036638535503
-0.13394428039228
-0.133202579168393
-0.13070758478108
-0.127982194467091
-0.127074210723303
-0.130242096363267
-0.139426657565873
-0.155578212241707
-0.177983043027698
-0.203786741979999
-0.227921909227696
-0.2435969983756
-0.243389238376731
-0.220824125033698
-0.172154008648882
-0.0979197503115806
-0.00384241500712573
0.0993221380318554
0.197125252988835
0.273832160191446
0.315455756255223
0.31274679884705
0.263392426173656
0.17280544084948
0.05321882364538
-0.0787475887017616
-0.205450405054492
-0.311660852505272
-0.387232654727811
-0.428420469665629
-0.437683664333787
-0.422221847399775
-0.391771517781442
-0.356286192004254
-0.324035386625244
-0.300451817631771
-0.287812225229598
-0.285627740207851
-0.291489796719963
-0.302079576681907
-0.3140878697098
-0.324877672546678
-0.33282108407792
-0.337329527286922
-0.338657188023261
-0.337586148651977
-0.335099037736944
-0.332117796810984
-0.329346947639799
-0.327220169412013
-0.325921379834022
-0.32544143002943
-0.325637870826493
-0.326281402405194
-0.327089149421451
-0.327753736114849
-0.327975635152004
-0.327498208323323
-0.326137089187801
-0.323793062911316
-0.320440989688868
-0.31609383889809
-0.310747086184879
-0.304312623084407
-0.296553237928724
-0.287030137201492
-0.275077475634837
-0.259817972452278
-0.240229898110476
-0.215266659452683
-0.184017039748589
-0.145880425778452
-0.100721988590028
-0.0489721425202134
0.00835594484742315
0.0697404183873775
0.133307898625199
0.197050477137311
0.259069537311151
0.317808167829257
0.372232930629403
0.421930319539416
0.467095500172278
0.508411212997488
0.546839529981245
0.583371313689452
0.618790119019104
0.653504913482731
0.687490620964357
0.7203517374099
0.751497214905599
0.780388757823444
0.806803602643623
0.831041179457975
0.854005637751383
0.877117122464326
0.902044313109331
0.930302393341399
0.962809645605948
0.999523990630202
1.03927412624997
1.079855818615
1.11839309082164
1.15188771293611
1.17782326999393
1.1946714429391
1.2021740702382
1.20133580847945
1.19413874473042
1.18305946380438
1.17051286915334
1.15835637449266
1.14756343444097
1.13812526468211
1.12917791922976
1.11929527657295
1.10685270513835
1.09036096082916
1.06869441909804
1.04118079079419
1.00756467949291
0.967890441723373
0.922363191156258
0.871240301483948
0.814785135397875
0.753288712236151
0.68714201193565
0.616926960723958
0.543489655465365
0.467964496223141
0.391730753864641
0.316300668429595
0.243156385333085
0.173567606357157
0.108429090305092
0.0481545807097267
-0.00734896047235774
-0.0586226929584579
-0.106529291729042
-0.152089452941858
-0.196316774601563
-0.240080010315145
-0.284008833649105
-0.32844568380458
-0.373437039581148
-0.418754374695639
-0.463936363785536
-0.508346555252119
-0.551242674788897
-0.591854549347471
-0.629467561085969
-0.663507607544269
-0.693621605926493
-0.71974454491267
-0.742140485259188
-0.761402707953468
-0.778400647480037
-0.794170638252943
-0.80976251012629
-0.826069451015158
-0.843677926770199
-0.8627735784492
-0.883127375153193
-0.904166901966599
-0.925116033695928
-0.945168723969354
-0.963654375941997
-0.980155809458266
-0.994555595516609
-1.00700849730651
-1.01785988271361
-1.0275441405721
-1.03649773319754
-1.04510843189235
-1.05370124876476
-1.06254197529782
-1.07183046465137
-1.0816631286002
-1.09196528731811
-1.10241892015334
-1.11242669000605
-1.12114967742881
-1.12763429979771
-1.13101272105317
-1.13073385140311
-1.12676911794707
-1.11974138423928
-1.11094186070518
-1.10222038267415
-1.0957531133637
-1.09370750054754
-1.0978392681572
-1.10907201105521
-1.12712529183844
-1.15026731336496
-1.17526646568177
-1.19759614379553
-1.21190702485536
-1.21272502171509
-1.19527337005908
-1.15627114941484
-1.09454589704594
-1.01132596171035
-0.910145724869722
-0.796383840252662
-0.676531318462744
-0.557327195471171
-0.444896612020853
-0.343991461147227
-0.257391483353704
-0.185497079801852
-0.126145228465225
-0.0747000996965678
-0.0244884687793853
0.0323603832665755
0.103669203950134
0.195667397260592
0.311381786089965
0.449309258280212
0.60275606741462
0.760160473549985
0.906533832521745
1.02589065239587
1.1042533609782
1.1325943026706
1.10899642671179
1.03942913668164
0.936846645173955
0.818751401562238
0.703791894951051
0.608233637569122
0.543155239445021
0.51297764807853
0.515532052958985
0.543457977983309
0.586427158423337
0.633576518667454
0.675598606943874
0.706123290374562
0.722254681924563
0.724335049674048
0.715150241263426
0.698854356123444
0.679882689774503
0.662061807491141
0.648038748775419
0.639061161140033
0.635065016114508
0.634978034445146
0.637129100510135
0.639663564630602
0.640892153724336
0.63953489677711
0.634850284155683
0.62665875980049
0.615279701501019
0.601406243959006
0.585945468020155
0.569852683601778
0.553986185718827
0.539001911253177
0.525296905116708
0.512999441828328
0.50199538986273
0.491976817455758
0.482499879226613
0.473043485831974
0.4630662018623
0.452063456186289
0.439627669468134
0.425509576544783
0.409672434959103
0.392326270690855
0.373929761162533
0.355152806377792
0.33680113670492
0.319712648418581
0.304641150444844
0.292145517653184
0.282500913051228
0.275644788873418
0.271165117002608
0.268333037290017
0.266177958166895
0.263600127891201
0.259512028829593
0.25299338715541
0.243435561974388
0.230644235193546
0.214871151775425
0.196759723099978
0.177212850137597
0.157215585593635
0.137659458661153
0.119212470016898
0.10226011192395
0.0869172043391452
0.0730892741024761
0.060553269299199
0.0490314732863844
0.0382448941267159
0.0279461152765484
0.0179403465824051
0.0081042321382548
-0.00159377952497931
-0.011075584267037
-0.0201475663993405
-0.0285165006685514
-0.035831971927128
-0.041751547986874
-0.0460160434123795
-0.0485164870459778
-0.0493343336210876
-0.0487424805204021
-0.0471652170031323
-0.0451072123025125
-0.0430708282774331
-0.0414835976720161
-0.0406525120663535
-0.040751417944367
-0.04183701164601
-0.0438816251931579
-0.0468089521991314
-0.0505216858906416
-0.0549157369378388
-0.0598815003198805
-0.0652965165645673
-0.0710156682629201
-0.0768657576586141
-0.0826511895941161
-0.0881754157844343
-0.093277589873447
-0.0978760643057074
-0.102002912518963
-0.105811231791631
-0.10954347246387
-0.11346425706943
-0.117779033681216
-0.122570879855492
-0.127784524824133
-0.133269024546977
-0.138865859501778
-0.144508532409609
-0.150292461525234
-0.156483818731772
-0.163459179502468
-0.171594664548022
-0.181142405098041
-0.192136100181036
-0.204355358429933
-0.21735630996161
-0.230553452435699
-0.243324030851684
-0.255105434442292
-0.265465465913447
-0.274138358469558
-0.281030085713564
-0.28620192353309
-0.289841546322075
-0.292228314007692
-0.293696631622301
-0.294600189025254
-0.295280280598061
-0.296041525511901
-0.297136771308739
-0.298759907259643
-0.301042039138846
-0.304044560710101
-0.3077434800283
-0.312003655475343
-0.316548646096278
-0.320939118186137
-0.324576673366566
-0.326747826908873
-0.326713932784283
-0.323838861432146
-0.317731319584213
-0.308368376900335
-0.296165670219626
-0.281969335740478
-0.266962609129938
-0.252501228000267
-0.23991023899416
-0.230284976743964
-0.224337409895614
-0.222315966785075
-0.22400642080361
-0.228799912584552
-0.23579864036367
-0.243925583007897
-0.252013545816152
-0.258867220045249
-0.263311894778103
-0.26425552367505
-0.260791696342751
-0.252358344293083
-0.238942591000871
-0.221290990249929
-0.201054918926558
-0.180784119658526
-0.163688257887545
-0.153124094502344
-0.151834071748886
-0.161049486691752
-0.179655677189549
-0.203669140159862
-0.226270524454287
-0.238556982762794
-0.231024720967746
-0.195593472019108
-0.127787643669559
-0.0285556105400777
0.0948051132204843
0.229014200245876
0.356592671187481
0.458840315082905
0.519439722448194
0.527886407406132
0.481902083233667
0.388177350174576
0.261185303837162
0.120309409989079
-0.0140157314371107
-0.124196868587997
-0.19848592623408
-0.232471864618279
-0.22888557985732
-0.195984471823235
-0.145088105188574
-0.0879417748954282
-0.0345010357691471
0.00848073498502071
0.037936175661971
0.0541424018762666
0.059810682858148
0.0589245064910705
0.0556201056054565
0.0533232774010565
0.0542516456697206
0.0592910720848323
0.0681777546215355
0.0798725848799225
0.0930024334553564
0.106258938619884
0.118679599293864
0.129777589929432
0.139526254213259
0.148234983581611
0.15637095590195
0.164384132724228
0.172581834324775
0.181077918465889
0.189816388765319
0.198647687702979
0.207424223377802
0.216081873664878
0.224683473915216
0.233413621345173
0.242527672552491
0.252269514388755
0.262780802287452
0.27402689025438
0.285760588887044
0.297535085021886
0.308764291580367
0.318815837317409
0.327112566206176
0.333216098498422
0.336871920750658
0.338007676049624
0.336690568744786
0.333061506416758
0.327269361281524
0.319426924382604
0.309601345950214
0.297839081755688
0.28421315830268
0.268873354568807
0.252080239938162
0.234211519556249
0.215740297068249
0.197194335306126
0.179108929024881
0.16198308882973
0.146242625273804
0.132208868346028
0.120071036566463
0.109863715499161
0.101455856325857
0.0945601471570417
0.0887687191201601
0.0836135999650417
0.0786419777173804
0.0734912213145432
0.0679482843960401
0.0619817294689843
0.0557404777381166
0.0495199619999211
0.0437023159531843
0.0386817012645611
0.034788500735621
0.0322264977493385
0.0310346371792355
0.031079495861261
0.0320777341888339
0.033641916303541
0.0353395953498495
0.0367544019792393
0.0375385758022763
0.0374489093134325
0.0363623201061213
0.0342721942907078
0.031270537570944
0.0275225295381966
0.0232391772183398
0.0186514194056573
0.0139867705317065
0.00944850562196288
0.00519746605593937
0.0013370647784285
-0.00209744223554798
-0.0051437232578006
-0.00790888081695777
-0.0105558652499536
-0.0132803686651155
-0.0162825037283563
-0.0197404660675111
-0.0237933822924013
-0.0285371783140162
-0.0340319603642883
-0.0403146026627199
-0.0474083003012766
-0.0553225772098961
-0.0640415893009486
-0.0735036866031928
-0.0835796805233854
-0.0940600511901713
-0.104660979161744
-0.115054278430106
-0.124917721305918
-0.133993340739825
-0.142136525412521
-0.149340697554336
-0.155730338723615
-0.161525508316619
-0.166989225802701
-0.172372040729433
-0.177865736328531
-0.183572975892312
-0.189494833499258
-0.195535169252513
-0.201519797627
-0.207228651640457
-0.212439372813758
-0.216979200123513
-0.220777760354507
-0.223907919450797
-0.226598973751225
-0.229209534671571
-0.232157073919467
-0.235814565765132
-0.240397288875523
-0.24586974836878
-0.251900694416108
-0.257883393431831
-0.263021964615633
-0.266467792643088
-0.267477590943692
-0.265559767641368
-0.260579077496356
-0.252799463036118
-0.242858365239726
-0.231679400560478
-0.220341622286662
-0.209930745422706
-0.201399554104262
-0.195461092219178
-0.192529960128343
-0.192715367696579
-0.195856483581772
-0.201579596847363
-0.20935235908171
-0.218516151020988
-0.228292562577223
-0.237779029866784
-0.245964600856617
-0.2518021919723
-0.254362757782756
-0.253068226551012
-0.247960050016607
-0.239922268379625
-0.230758233724993
-0.223030935653163
-0.219622146413766
-0.223038957405507
-0.234581674741693
-0.253561917666966
-0.276800279419058
-0.298619829673351
-0.311475650532761
-0.30722640224861
-0.27888403954108
-0.222511537297536
-0.138824689770372
-0.0340377356394259
0.0804004648915526
0.189308234222608
0.276338281650388
0.327132192945548
0.33236179498996
0.289899068795228
0.205510232710443
0.0918220462198839
-0.0342294053197281
-0.154832309450713
-0.254743222625361
-0.323905870669553
-0.35869463356112
-0.361651528911173
-0.339986715716824
-0.303376525828254
-0.261668518212407
-0.223007923055334
-0.192697386538481
-0.172869650245184
-0.162856548127009
-0.160016758147277
-0.160748164872197
-0.161442884764432
-0.159215523721349
-0.152319859901998
-0.140246299401123
-0.123552057178058
-0.103513850430255
-0.081707797994049
-0.0596148408430251
-0.0383268693723142
-0.0183952554919134
0.000173192945042873
0.0178002132107239
0.0351486331232876
0.0529184256385916
0.0716734267363303
0.0917289469923486
0.11311106970649
0.135582075882518
0.158715989174547
0.182003312747652
0.204962330892724
0.227234150731932
0.248640597632676
0.269190372897115
0.289030691752374
0.308356989736449
0.327307290602898
0.345874630874946
0.363866702129582
0.380927157836671
0.396612963202853
0.410503926521183
0.422310054909804
0.431942569730732
0.439525313832928
0.44534214527983
0.44973718733488
0.45300122610559
0.455282882112405
0.45655503618001
0.456647990281255
0.455337874584699
0.452460546671257
0.448014385734562
0.442221424943413
0.435531084223424
0.428567792516622
0.422037655996032
0.416617295536142
0.412849454938826
0.411066012880928
0.411351828316767
0.413554557474781
0.417337133639215
0.422261246722133
0.427882984161072
0.433838002338413
0.439895182011589
0.445965239231476
0.452063027673828
0.458236248783348
0.464484340124411
0.470694900075416
0.476619373645903
0.481897065000668
0.486121551550762
0.488931092755772
0.490098135485994
0.48959383693257
0.487610444200366
0.4845344708636
0.480874124523799
0.477153744079349
0.473794981125305
0.471007828355474
0.468713500855805
0.466515848137479
0.463729314806552
0.459460529131595
0.452729226507426
0.442605659042396
0.428339241036268
0.409457872159137
0.385826805326689
0.357666018980097
0.325532302030747
0.290274984135415
0.252972956641358
0.214857687579221
0.177225119335271
0.141339931167959
0.108337744032342
0.0791326093672499
0.0543375518442725
0.0342053833124416
0.0185964444471451
0.006979894508358
-0.00152501374461974
-0.00806346044656996
-0.0139172988226677
-0.0203467738718396
-0.0284239525086238
-0.0388865936096675
-0.0520403370746139
-0.0677285060286051
-0.0853750610456116
-0.104091574808428
-0.122827560837368
-0.140537173543481
-0.156334027064838
-0.169608795784336
-0.180091286929285
-0.187849878367155
-0.193234932318599
-0.196785298871793
-0.199124303591018
-0.2008712832798
-0.20258665267153
-0.204754835923993
-0.207794742085443
-0.212077666770112
-0.217931887697979
-0.225621822452006
-0.235303103761296
-0.246967358362449
-0.260397398398635
-0.275153264810015
-0.290602660421452
-0.305997629298438
-0.32058563128812
-0.333731171104554
-0.345018247878872
-0.354307420065972
-0.361734123543275
-0.367652600481651
-0.372545575236032
-0.376927911733822
-0.381270677341117
-0.385961873534073
-0.391305650047159
-0.397548001730003
-0.404908013273866
-0.41359226341007
-0.42377648448885
-0.435551340994789
-0.448844900109928
-0.463348667059608
-0.478482419918019
-0.493431752414733
-0.507279256959168
-0.519226387367096
-0.528872180121977
-0.536484175649615
-0.543175086250194
-0.550895223522374
-0.562172372644091
-0.579579649897847
-0.604982655179149
-0.63869660259235
-0.67875192898393
-0.72049992337906
-0.756767874890673
-0.778685845629054
-0.777160779744439
-0.744794758526192
-0.67787745704346
-0.577981492231199
-0.45269844443538
-0.315190948530034
-0.182482087123962
-0.0727023663557947
-0.00179370214253019
0.0196427774796043
-0.0113708572228631
-0.0893631617794787
-0.201320004869615
-0.329181577506513
-0.453371730431384
-0.556524389708976
-0.626532408209754
-0.658257739020206
-0.653629810707042
-0.620287098570901
-0.569252974049996
-0.512297513441151
-0.459606033060547
-0.418195810739309
-0.39127101466195
-0.378461029626862
-0.376707311824778
-0.381476402399677
-0.387980542090754
-0.392159909140332
-0.391288716120266
-0.384178342587964
-0.371039381105201
-0.35311708010899
-0.332228521590132
-0.310312105241647
-0.289064186464294
-0.269698867230825
-0.252835697120912
-0.23850068213832
-0.226217260559519
-0.215161458721634
-0.204354567618924
-0.192864600872147
-0.179984832457957
-0.165356786367297
-0.149009996679807
-0.131304364583391
-0.11278239379245
-0.0939628213115832
-0.0751259829463368
-0.0561477119283625
-0.036430573659011
-0.0149613166921908
0.00950415830841114
0.0381577572300546
0.0718156742213282
0.110629654594061
0.153907606842734
0.200095756189856
0.246935368325268
0.291763866188458
0.331897943441483
0.365024513910828
0.389533563102542
0.404747176888922
0.411021972222194
0.409721932463275
0.403073120355299
0.393921071076845
0.385417471436262
0.380667633360833
0.382376438319209
0.392537301894202
0.412211862281312
0.441440874822018
0.479304631166209
0.524116710074406
0.573699706797335
0.625671883643418
0.677680062094707
0.727544038039052
0.773316924738116
0.813296527138041
0.846033413851228
0.870369934816095
0.88551812962305
0.891155734427909
0.887501088363165
0.875327349941028
0.855893371823547
0.830794738090137
0.801762893411261
0.770454367609872
0.738272476395918
0.706252489669942
0.675023347585187
0.644840630253363
0.61567150688917
0.587305392096357
0.55946422748158
0.531892077485969
0.504412524729278
0.476951527887468
0.449530875938747
0.422241947687236
0.395210912438219
0.368565278460514
0.342408743837238
0.316807688115417
0.291789281302152
0.267348697341882
0.243461580267911
0.220097700952109
0.197232423016381
0.174853828084704
0.152964790625158
0.131580630789943
0.110723935086525
0.0904185310581614
0.0706844106803529
0.0515347683264752
0.0329755001350917
0.0150067625391598
-0.00237428782563462
-0.0191705733867523
-0.0353828250570533
-0.0510084590924387
-0.0660417130309656
-0.0804747950114789
-0.0942995428356861
-0.107508991785745
-0.120098342914487
-0.13206508692943
-0.143408388836587
-0.154128130062573
-0.164224097357908
-0.173695664053419
-0.182542025020126
-0.190762775105607
-0.198358470310133
-0.205330809988064
-0.211682211294474
-0.217414788704291
-0.222529046266683
-0.227022820015786
-0.230891031382877
-0.234126568819544
-0.236722184789412
-0.238672860017539
-0.239977835392523
-0.240641560991276
-0.240673156629615
-0.240084489003712
-0.238887450702224
-0.237091303027626
-0.234700925678413
-0.231716507714339
-0.228134720012776
-0.223950910800343
-0.219161552712761
-0.213766145994134
-0.207768017333191
-0.201173827342459
-0.193991989510945
-0.186230525174775
-0.177895070946055
-0.168987770953805
-0.15950761227067
-0.149452414895231
-0.138822195979741
-0.127623048224818
-0.115870145199847
-0.103588249813639
-0.0908084027287649
-0.0775604150980142
-0.0638622551439588
-0.0497090312618574
-0.0350655153186233
-0.0198664717309315
-0.00402801808424789
0.0125293313206399
0.0298491046942936
0.0479061543752284
0.0665833884320434
0.0856694410133667
0.104886234228563
0.123949159209973
0.142653420911712
0.160969688483144
0.179123130551236
0.197625201519103
0.217230011846926
0.238798528378397
0.26307396368649
0.290397610939382
0.320420462405337
0.35188474245928
0.382553262638835
0.409347501688229
0.428716148288428
0.437199545399401
0.432094263216827
0.412073909533296
0.377606675326169
0.331040556297555
0.276303147649148
0.218265062483369
0.161910423223799
0.111509964861196
0.0699837741346023
0.0385781648604385
0.0168910376860925
0.00319419389745304
-0.00505684350076845
-0.0106556799495878
-0.0161378696008715
-0.0234154744335783
-0.033590263640439
-0.0469404215512002
-0.0630449910643827
-0.080994631976499
-0.0996356107299898
-0.117802253468736
-0.134506175880547
-0.149063658780928
-0.161152861233123
-0.170800510956731
-0.178305622795028
-0.18411715877815
-0.188691970968692
-0.19236528652295
-0.1952650773824
-0.197292753417403
-0.198177190974939
-0.197590576784623
-0.195297163695884
-0.191293992545474
-0.185899779281594
-0.1797575003685
-0.173737986072234
-0.168761213148316
-0.165579355854446
-0.164580808706581
-0.165671675129184
-0.168271556366612
-0.171429941419449
-0.174036821874309
-0.175075628950674
-0.173855621943512
-0.170167340942906
-0.164326164352337
-0.157098975139676
-0.149539188081408
-0.142777270721862
-0.13782046243534
-0.135404823588381
-0.135920281523035
-0.139405021772743
-0.145588870136496
-0.153960695073563
-0.163840708892107
-0.174449065566605
-0.184970970016771
-0.194622074624783
-0.202716448525516
-0.208734929271125
-0.212386084479121
-0.213647168427882
-0.212771074048093
-0.210249853667986
-0.206735668044544
-0.202932245263718
-0.19947891304525
-0.196851489490769
-0.195299534221401
-0.194830211066433
-0.195238701237255
-0.196176118151427
-0.197239132516435
-0.198061530231625
-0.198387713414302
-0.198112591058962
-0.197280688757113
-0.196047210094994
-0.194612602617208
-0.193148378828717
-0.191734536185497
-0.19032666590734
-0.188763045617853
-0.186810123418449
-0.184232493265155
-0.180865073110839
-0.176664143234557
-0.171721431649081
-0.166239316022359
-0.160479609393163
-0.154706619107953
-0.149143853642731
-0.143954699636263
-0.139245729803847
-0.135082381664786
-0.13150399135109
-0.128528911643472
-0.126147807992843
-0.124309916956686
-0.122910275893296
-0.121785638981906
-0.120724264207829
-0.119490862595439
-0.117863201983867
-0.115672115894358
-0.112833625018043
-0.109362161023222
-0.105358281706578
-0.100972035494394
-0.0963516768785591
-0.0915931909130791
-0.0867065131945008
-0.0816093239646436
-0.0761507698201577
-0.0701581018050975
-0.0634918313447765
-0.0560922630522626
-0.0480035855223806
-0.039369916701151
-0.0304072511579094
-0.021362189969391
-0.0124702974659355
-0.00392379573639221
0.00414815891962309
0.011690072333205
0.0187285255402121
0.0253835153488377
0.0318813401645582
0.0385599383511329
0.0458532659623373
0.0542437671193665
0.0641814478176609
0.0759810692999055
0.089720115392859
0.105164944526473
0.121749206480253
0.138618130040454
0.154737183197111
0.169047426921061
0.180636917813554
0.188891641779839
0.193592623707053
0.194937597914949
0.193483646028805
0.190027671290591
0.185459000917544
0.18062663063634
0.176258288709262
0.172949519036261
0.17121339842093
0.171554380668689
0.174513557415282
0.180635402960947
0.190329881601886
0.203643327462745
0.219995719741321
0.237977297058868
0.255310936026062
0.269069141658622
0.276183531314686
0.274206906503736
0.262198591012869
0.241524514165753
0.216320076512776
0.193380306540543
0.1813325441089
0.189106890707086
0.223919384623354
0.289171287980088
0.382784522260764
0.496486354506324
0.616402261528953
0.725032448897567
0.804335248151137
0.839309901293811
0.821260771012198
0.749915870012407
0.633799577085108
0.488685660003861
0.334467611565546
0.191215887747262
0.0753973798020779
-0.00285651355226596
-0.0408871907947571
-0.0429666644795831
-0.0184171367502493
0.0209939710096849
0.0636990900286563
0.100441594717117
0.125505355502597
0.136978135327537
0.136193082684773
0.126641088891258
0.112698171806522
0.0984760364330022
0.08700825102259
0.0798643656614217
0.0771727304905422
0.0779524846896559
0.0806151281568784
0.0834932439137138
0.0852786903857876
0.0852936924336371
0.083565419465244
0.0807192678614131
0.0777415405936311
0.0756837580857182
0.0753854234952857
0.0772792768724385
0.0813164221041471
0.087015568778238
0.0936098147216822
0.100243174284064
0.106161561226026
0.110849749998038
0.114083884135144
0.115892371458359
0.116439984935278
0.115866380642377
0.114119752097544
0.110829178704113
0.105255241963853
0.096346536525297
0.0829086887797884
0.0638637121755536
0.0385471677668155
0.00696957470903232
-0.0300323531834802
-0.0708060008660401
-0.11306553536737
-0.154213411202808
-0.191732550572021
-0.223565300856759
-0.248400942476961
-0.265817514082084
-0.276258867828877
-0.280864937106576
-0.281203108830281
-0.278964573642326
-0.275688910285487
-0.272565043006873
-0.270332932429317
-0.269285186868376
-0.269347492659971
-0.270205115357393
-0.271440545620118
-0.272653045845183
-0.273541351653811
-0.273942707474977
-0.273831896074432
-0.273291097252122
-0.272464580530408
-0.271511732590281
-0.270568774333675
-0.269725051354086
-0.269015233246364
-0.268425082824459
-0.267906195746697
-0.267394379048137
-0.266826900805485
-0.266155255628689
-0.26535183887384
-0.264410557525848
-0.263342626833463
-0.262169479967107
-0.260914870894626
-0.259597993780606
-0.258228930458303
-0.256807106004174
-0.255322764538469
-0.253760831574696
-0.25210599659129
-0.250347564580755
-0.248482704059322
-0.246517179291524
-0.24446338301794
-0.242336269308505
-0.240148389595506
-0.237905491775564
-0.235604004686758
-0.233231257733655
-0.230768598976809
-0.228196823602482
-0.22550266904465
-0.222684717976325
-0.219756965198054
-0.216748573956036
-0.213698970108993
-0.210648393353181
-0.207625274403991
-0.204633112039992
-0.201640504876215
-0.198578239017962
-0.195346559290878
-0.191833887947179
-0.187945467500783
-0.183637116390163
-0.17894619558874
-0.174009914012497
-0.169061214587469
-0.164395385729003
-0.160306353906545
-0.156999625023936
-0.154497456378644
-0.152558739010312
-0.15063867107975
-0.147909479606711
-0.143352375473146
-0.13591382003329
-0.124699637961028
-0.109164183943589
-0.0892451508059536
-0.0654027950197283
-0.0385461624996834
-0.00986257136079194
0.0194016474881956
0.048144649350934
0.0755391188225495
0.101059267410152
0.124412950723608
0.145418863991822
0.163882703348118
0.17951921860741
0.191945000105674
0.200739819861248
0.205551921387806
0.206210810919984
0.202811676233183
0.195746721711741
0.185675992610432
0.173447933551331
0.1599924386286
0.146212756497623
0.132897211680935
0.120661483349026
0.109923161750933
0.100905856640163
0.0936688274964725
0.0881562109744712
0.0842557548068993
0.0818525853899019
0.0808628132169124
0.0812372692596453
0.0829364901594477
0.0858898389929102
0.0899586886871112
0.0949224040383591
0.100497148990332
0.106385312702615
0.11234223137325
0.118240165033399
0.124108587955281
0.130134687839079
0.136617426842441
0.143880718849153
0.152163711135392
0.161515828447388
0.171728019976945
0.182326993314508
0.192645164535581
0.201957395341163
0.209651826320539
0.215385270230912
0.219173229658101
0.221384475779207
0.222643285110614
0.223673564867343
0.225134405625677
0.227492172797128
0.230956009792892
0.235481301463945
0.24082724374936
0.246644329608491
0.252565843712631
0.258282472665824
0.263587846025269
0.268392155338898
0.272708623861795
0.276622262213669
0.280251803648914
0.283714470629576
0.287100220083385
0.290458433237267
0.293796632572982
0.297088388904322
0.300286391110175
0.303336601797792
0.306190216047974
0.308811410723911
0.311180262432561
0.313291418392127
0.315149913560261
0.316765846075711
0.318149472055501
0.319307776110036
0.320242908322013
0.320952277166222
0.321429725639333
0.321667142951389
0.321655992679814
0.32138842954927
0.320857836110604
0.320058738343307
0.318986204156896
0.317634995642792
0.315998866446636
0.314070385078573
0.311841489134109
0.309304676706836
0.306454434995051
0.303288342149171
0.299807354090521
0.296015068358393
0.291916096983756
0.287513941853819
0.282808901908379
0.277796564190604
0.272467338518565
0.266807270159667
0.260800032453524
0.254429657445778
0.247683325625869
0.240553487583608
0.233038753125487
0.225143318467085
0.216875111179315
0.208243177896246
0.199255000404549
0.189914365749437
0.180220201681602
0.170166523004746
0.159743382118663
0.148938511975253
0.137739239229203
0.126134268237625
0.114115057891235
0.10167663953185
0.0888178019357252
0.0755406347565267
0.0618495326297042
0.0477499029058593
0.0332469024651177
0.0183444831064987
0.00304486986017681
-0.0126515786359921
-0.0287462884661604
-0.045242340975921
-0.0621443998505894
-0.07945867947901
-0.0971928074903499
-0.115355346607031
-0.133954763390931
-0.152997797375914
-0.172487457336292
-0.192421150990249
-0.212789614633921
-0.233577256559558
-0.254764250639157
-0.276330288527429
-0.298259433954029
-0.320545123017695
-0.343194101666684
-0.366228055259909
-0.389681915184711
-0.413598334979742
-0.438018579395412
-0.462970987045601
-0.488459119020481
-0.514452493338781
-0.540883173316295
-0.56765114704256
-0.594640162139713
-0.62174339015364
-0.648895253778881
-0.676102630071263
-0.703466390794888
-0.731183824784441
-0.759524637799107
-0.788778199057753
-0.819177067972027
-0.85081034983648
-0.883548101117336
-0.917002350114495
-0.950548857312992
-0.983424811964061
-1.01490111581472
-1.04450581039575
-1.07225201894678
-1.09880585836907
-1.12552413354067
-1.15430401590857
-1.18721973843289
-1.22597188129547
-1.27123432660902
-1.32203819573846
-1.37536370330344
-1.42610360770934
-1.46750607760355
-1.49210253625501
-1.49299517504087
-1.465252555298
-1.40708280606134
-1.32046182041288
-1.2110061379038
-1.08707556160628
-0.958306904028901
-0.833938035636506
-0.721323103362514
-0.624958633503634
-0.54617803233291
-0.483491969998241
-0.433409018646048
-0.391494225932916
-0.353415755902319
-0.315775426365793
-0.276594587697441
-0.235410244053471
-0.193011000429901
-0.15089849053111
-0.110594409060179
-0.0729283860363791
-0.0374416191237286
-0.00202753031357324
0.0370969766828204
0.0850399148720371
0.147513451846428
0.229829616722866
0.335774266480292
0.466578164165577
0.620218168606946
0.791237648808737
0.971176959644463
1.14957545152075
1.3153799732417
1.45850304225583
1.57123755462284
1.64926118992121
1.69204750336948
1.70262598712435
1.68677271108953
1.65183114704074
1.60542705295287
1.55433624995235
1.50369749726015
1.4566603435611
1.41445176092725
1.37676227819946
1.34230738088039
1.30941554255715
1.27652256989729
1.24249933709337
1.20679168469648
1.16939505222726
1.13071475790125
1.09137337480506
1.05202148422844
1.01319224114923
0.975219788887543
0.938222211042737
0.90213538275614
0.866776633171747
0.831916380954941
0.797340202169133
0.76289077489767
0.728486480610177
0.694119352890715
0.659838623787425
0.625727254940145
0.591878088356224
0.558374389742704
0.525277324635781
0.492620867055817
0.46041313691006
0.428642310329005
0.397284967025193
0.366314862516376
0.335710488541331
0.305460301245148
0.275565058974211
0.246037243656708
0.216898009289693
0.188172502658784
0.159884697968684
0.132052984826677
0.104687551858524
0.0777901074827538
0.0513558020908006
0.0253765890792716
-0.000155090078338707
-0.025243374708798
-0.0498875039081724
-0.0740819289825191
-0.0978176545621053
-0.121084140176107
-0.143871057249838
-0.166169399412508
-0.187971782072094
-0.209272080643904
-0.230064714974763
-0.25034387919345
-0.270102932246748
-0.289334094811091
-0.308028568773746
-0.32617717193971
-0.34377149437772
-0.360805387510994
-0.377276353293601
-0.39318627657806
-0.40854107678034
-0.423349216963305
-0.437619422394586
-0.451358233740925
-0.464568055959542
-0.477246185651856
-0.489385006252491
-0.500973246009428
-0.511997978929561
-0.522446934168245
-0.532310635382238
-0.54158389932444
-0.550266324796597
-0.558361652581652
-0.565876228122761
-0.572817091060583
-0.579190290756727
-0.584999844997441
-0.590247424249905
-0.594932544322728
-0.599052941359846
-0.602604899285376
-0.605583482788073
-0.607982770495307
-0.609796239207412
-0.611017434276353
-0.611640975625145
-0.61166378855381
-0.611086258527287
-0.609912891314943
-0.608152102440294
-0.605814972538691
-0.602913120146976
-0.59945615514881
-0.595449374218017
-0.590892361359262
-0.585778949319072
-0.580098651038594
-0.573839289368386
-0.566990223038602
-0.55954535459286
-0.551505089437483
-0.542876658626603
-0.533672697082816
-0.52390853062021
-0.513599042012191
-0.502756074531917
-0.491387054655727
-0.479495011257306
-0.46707967378542
-0.454139053273245
-0.440670921345222
-0.426673826521492
-0.41214756134066
-0.397093178078035
-0.38151270816148
-0.365408729327823
-0.348783919943746
-0.331640760048505
-0.313981540349554
-0.295808776834299
-0.277126003749696
-0.257938776443896
-0.238255594993826
-0.218088373641001
-0.197452056083086
-0.176363078371546
-0.154836676214863
-0.132883499327701
-0.110506468215162
-0.0876990441599368
-0.0644458959388694
-0.0407263249524939
-0.0165199410098447
0.00818672032601288
0.0333943815059258
0.0590876761426055
0.0852354144509835
0.111794799414377
0.138719033725267
0.16596692780107
0.193512503416807
0.221352307227254
0.249508284730994
0.278024655019172
0.306958265768787
0.336363338126514
0.366273172569743
0.396682949334902
0.427538710613747
0.458737406272371
0.490141182779599
0.521605973559895
0.553020435058256
0.58434724430557
0.615655798196791
0.647134476799065
0.679072636949926
0.711807708769636
0.745640858575709
0.780734522925427
0.81701467762971
0.854107240486965
0.89133859249566
0.927822520510479
0.962639122468163
0.995086872536329
1.02496135023254
1.05278982495595
1.0799381234468
1.10851272364923
1.14101164363363
1.17973182483774
1.22601053150446
1.27944865479851
1.33731438810392
1.39433549933027
1.44304185530457
1.47471367063493
1.48083950197439
1.45482503994158
1.39356820703356
1.29848015817465
1.17562147390584
1.03483521409487
0.888037912208144
0.747079082473736
0.621702648343422
0.518093501105596
0.438296601526104
0.380536761534473
0.340237049096125
0.311396965944735
0.287968561384119
0.264941488054351
0.238976104975534
0.208560914882384
0.17377927158195
0.135830483574015
0.0964616179784343
0.0574414460176716
0.0201644866194016
-0.0145739948737848
-0.0466319381569443
-0.0764327798846242
-0.104782652202899
-0.132645061263226
-0.160922181810426
-0.190281007577023
-0.221046999318388
-0.253170955780397
-0.2862598177168
-0.319651790672709
-0.352512775096647
-0.383935046608436
-0.413027642004595
-0.438995953368489
-0.461211610504749
-0.479272241305745
-0.493046603153657
-0.502697552257397
-0.508676348422672
-0.511687392768604
-0.512629854387352
-0.512527321271088
-0.512456084086914
-0.513478219872273
-0.516580803113288
-0.522620217901641
-0.532271663484637
-0.545987741798487
-0.563973925435519
-0.586188914147716
-0.612371775444327
-0.642086878363796
-0.674767813444707
-0.709739317712817
-0.746204729097627
-0.783203381828533
-0.819561009833947
-0.853868353695681
-0.884522176598503
-0.909847076524277
-0.928290228619409
-0.938653309829613
-0.940306267278215
-0.933324195044608
-0.918504480588664
-0.897252591700068
-0.8713607061617
-0.842730976229376
-0.813105753496367
-0.783859256248806
-0.755884123654531
-0.729580248814125
-0.704929971023889
-0.681628374329327
-0.659232107023198
-0.637293940913699
-0.615460401636878
-0.593522565480191
-0.571422097614565
-0.549223331483285
-0.527066499841337
-0.505117236013033
-0.48352422950195
-0.46239197707705
-0.441770444665441
-0.421659310490177
-0.402021931987393
-0.382803377317726
-0.363947489398044
-0.345409486989933
-0.32716248917559
-0.309198093329327
-0.29152241669543
-0.274149684309211
-0.257095519087832
-0.240371669731916
-0.223983169695269
-0.207928075839577
-0.192199224573591
-0.176787048383197
-0.16168246652826
-0.146879101917923
-0.132374414513037
-0.118169655435882
-0.104268799220155
-0.0906768105975365
-0.0773977274396299
-0.064433045292492
-0.0517807564510368
-0.0394351831223417
-0.0273875410220913
-0.0156270398351615
-0.00414227477212436
0.0070773455215761
0.0180403837868607
0.0287525936272161
0.0392167158043105
0.0494328503235907
0.0593992426025304
0.0691132277072647
0.078572101055191
0.087773799404498
0.0967174003870078
0.105403510707376
0.113834589691229
0.122015174725537
0.129951904797663
0.137653245504747
0.145128914290718
0.152389119948151
0.15944377710046
0.166301811156337
0.172970591387412
0.179455498558698
0.185759674858071
0.191884066870295
0.197827870055881
0.203589372503939
0.209167030016132
0.214560494763548
0.219771333038999
0.224803276455164
0.229661982791313
0.234354391862406
0.238887839291986
0.243269135158507
0.247503819701683
0.251595770994244
0.255547258113273
0.259359415473982
0.263032991727589
0.266569147083306
0.269970062791358
0.273239179614847
0.276380984130721
0.279400403434246
0.282302023359208
0.285089452210144
0.28776514349452
0.29033083757778
0.292788520426432
0.295141529517897
0.297395292948897
0.299557259863158
0.301635860369642
0.303638705828761
0.305570546251262
0.307431623149094
0.309216967141659
0.310916948609001
0.312519091362183
0.314010869824502
0.315382947670771
0.316632107788101
0.31776306040319
0.318788500736458
0.31972722103454
0.320600627434187
0.321428473694824
0.322224852381009
0.322995426240559
0.323736569863776
0.324436612189286
0.325078847369284
0.325645552235022
0.326122026289604
0.326499701284727
0.326777622145317
0.326962004838094
0.327064043507106
0.327096573365737
0.327070489349429
0.326991878785371
0.326860612031414
0.326670695773568
0.326412160960458
0.326073811690945
0.32564596059067
0.325122380214535
0.324501044161223
0.323783663298975
0.322974372917468
0.322078083188499
0.321098956252811
0.320039298118395
0.31889896285976
0.317675236356529
0.316363114225919
0.314955887859363
0.313445960995033
0.311825803004238
0.310088902685193
0.308230552888348
0.306248312218816
0.304142063950979
0.301913693363775
0.299566481920675
0.29710432777126
0.294530849017943
0.291848371586699
0.289056824867073
0.286152679775951
0.283128197626263
0.279971324366586
0.276666508243251
0.273196524887488
0.269545088674474
0.265699702065673
0.261653986186608
0.257408763573548
0.252971446777407
0.248353740738571
0.243568155958649
0.238624206716402
0.233525306461384
0.22826720681447
0.222838398483532
0.217222341573175
0.211400896216435
0.205358025442738
0.199082807422509
0.192571008700837
0.185824862878682
0.178851174532538
0.171658313982936
0.164252959128945
0.156637473326717
0.148808568116028
0.140757486561397
0.132471518913845
0.123936354366861
0.11513862196289
0.106067969165141
0.0967181621198679
0.0870869637190362
0.0771749066407275
0.0669834239071019
0.0565130080343443
0.0457620536333435
0.0347267772417896
0.0234021761554887
0.0117835513579667
-0.000132127037818994
-0.012345671275772
-0.0248562570441684
-0.0376629633964878
-0.0507666718078967
-0.0641715104503487
-0.0778851250600293
-0.0919174650164659
-0.10627836441114
-0.120974727612038
-0.13600834985286
-0.151375215421209
-0.167066623105753
-0.183071917954852
-0.199382163440683
-0.215993853229671
-0.232911717170003
-0.250149779079049
-0.267730069085627
-0.285678803927541
-0.304020421093464
-0.322770509601203
-0.341929266140356
-0.361477426225809
-0.381376505799108
-0.401574547364859
-0.42201741110321
-0.442664127291857
-0.463503223003921
-0.48456568069833
-0.505929751656919
-0.527713612632477
-0.550053985590612
-0.57307220078319
-0.596833256215017
-0.621307303600232
-0.646345496813158
-0.671682092008044
-0.696971234547541
-0.7218598230087
-0.746087970603714
-0.769597710797434
-0.792621437627905
-0.815717299421572
-0.839722252340126
-0.865606369150726
-0.894233758494089
-0.926062752925121
-0.960844760933972
-0.9973993726534
-1.03354498145377
-1.06624387747622
-1.09197812971176
-1.10731420503261
-1.10955403703124
-1.0973271382782
-1.07097118390518
-1.03258787470648
-0.985741105362652
-0.934861301143885
-0.884498908813756
-0.838603231566587
-0.799981707603045
-0.770032761550799
-0.748768158120436
-0.735073153488817
-0.727110062880083
-0.722757723519732
-0.719992302573627
-0.71714564963392
-0.713015413323891
-0.706837116057788
-0.698156879735178
-0.686662357289239
-0.672036776939583
-0.653894095792916
-0.631830639970113
-0.605592707710998
-0.575317152362182
-0.541763105451704
-0.506430233363359
-0.471464303154477
-0.4392908929906
-0.411989178076104
-0.39050526728915
-0.373886152811582
-0.358765599001959
-0.339329644369536
-0.307918774635736
-0.256289217419372
-0.177379792780357
-0.067254392930141
0.073234185354385
0.237536305399214
0.413624537124955
0.585483628386963
0.735712930404452
0.848777371999345
0.914216834522598
0.92905100994688
0.898742937961947
0.836402697665253
0.760350109288619
0.690583865624669
0.644984794351256
0.636120788505324
0.669317199731664
0.742293334421657
0.846271073602675
0.968150597825137
1.09318497436202
1.20757693589664
1.30053361824194
1.36549650555485
1.40046328982935
1.4074960369119
1.39164032069553
1.35954931328924
1.31811171641295
1.2733297732069
1.22960102148714
1.18944997346593
1.15365906894783
1.1216810774955
1.09218623095713
1.06360488767184
1.03456086858972
1.00413840448266
0.971973647359203
0.938199741617193
0.903296954395699
0.867905483139229
0.832651141554726
0.798018154843828
0.764284295078919
0.731516327281377
0.699611405833518
0.668363983104137
0.637537620833074
0.606925321734775
0.576388575470328
0.545872229821964
0.515398022184569
0.485043299010516
0.454912925142835
0.425111908102475
0.395724363527279
0.366801802175193
0.33836104134965
0.310389937833021
0.282857944764256
0.255728229366097
0.228968531355634
0.202558793058918
0.176494595511583
0.150786413829477
0.125455539068002
0.100528104245908
0.0760289140651134
0.051976655657151
0.0283815658393145
0.00524585204041125
-0.0174336693591045
-0.0396618596880599
-0.0614417819119677
-0.0827724859472672
-0.103648500357052
-0.124060856407195
-0.143999019339655
-0.163452919883308
-0.18241437996981
-0.200877562210407
-0.218838515289147
-0.236294240599191
-0.253241812957633
-0.269677944875574
-0.285599112507498
-0.301002097986209
-0.315884630860874
-0.330245775149192
-0.344085826143591
-0.357405715541223
-0.370206161569469
-0.382486906075371
-0.394246296800868
-0.405481269817138
-0.416187595694687
-0.426360171804295
-0.435993197218583
-0.445080211186689
-0.453614114141828
-0.461587324248007
-0.468992131608979
-0.47582117686273
-0.482067915166815
-0.487726980745089
-0.492794485234861
-0.497268345753935
-0.501148664049253
-0.504438005252188
-0.507141294902322
-0.509265091347392
-0.510816198791588
-0.511799849126471
-0.512217876473935
-0.512067395396078
-0.511340477003247
-0.510025161078903
-0.508107784592471
-0.505576092063303
-0.502422151062629
-0.498644020915817
-0.494245537253682
-0.489234310585173
-0.483618737751453
-0.477405165069259
-0.470596185627887
-0.463190500533795
-0.455184102956831
-0.446572067622041
-0.437350129099895
-0.427515486276027
-0.417066710682362
-0.406003069304661
-0.394323843717569
-0.382028232687964
-0.369116131272726
-0.355589567415182
-0.341454050053563
-0.326718794166904
-0.311394932642148
-0.295491449147098
-0.279009520771806
-0.261936914803353
-0.244244651123046
-0.225888046109303
-0.206813436382863
-0.186970469930586
-0.166328103884792
-0.144890735146524
-0.122709694928013
-0.0998851613043922
-0.0765547331452403
-0.0528675122009688
-0.028946245304741
-0.00484423070360955
0.0194926451907613
0.0442463183137788
0.0697176479586717
0.0962806502996277
0.124300154654651
0.154023750710804
0.185470119376303
0.218344660146836
0.252016305605782
0.28558362239307
0.318042328226489
0.348541209136104
0.376683113903421
0.402799242832992
0.428107330649499
0.454666457505478
0.485069197513181
0.521866188336513
0.5667920553862
0.619940101379948
0.67909517421766
0.739456345927573
0.793944074212428
0.834182068107682
0.852081449224794
0.841764464596465
0.801396717259177
0.734410444835498
0.649649625959703
0.560173854426324
0.480794554577951
0.42479953010792
0.400628056203823
0.409374042352408
0.443859969777192
0.489661264711633
0.527964819781232
0.539652674693435
0.509649231077408
0.430460567930551
0.304010886229496
0.141311348396648
-0.0399312801486692
-0.219113672934758
-0.376943831350897
-0.499017598063168
-0.577982406878473
-0.613956552863252
-0.613351807069431
-0.586611663973852
-0.545545822206392
-0.500908589852084
-0.460687204922695
-0.429313591311284
-0.407765217279748
-0.394333450711767
-0.385740779479859
-0.378284382068921
-0.368753736629331
-0.354982322451007
-0.336013379065165
-0.311957947678683
-0.283681317168163
-0.252465063896151
-0.21975940137535
