Timestamp,3/5/2024 10:57:47 AM
Interval,0.004
Channel name,"Input 0"
Unit,"V"
0,2.0597944132750854
0.004,2.0887379024934489
0.008,2.1183318071998656
0.012,2.1248359620803967
0.016,2.1375190640974324
0.02,2.1807716940529644
0.024,2.215568922663806
0.028,2.2233739085204434
0.032,2.2318293098651338
0.036,2.2607727990834974
0.04,2.3056514677591622
0.044,2.3303672563051805
0.048,2.3349201647215523
0.052,2.34174952734611
0.056,2.370367808820447
0.06,2.3869534037658013
0.064,2.3902054812060669
0.068,2.4038642064551823
0.072,2.4363849808578379
0.076,2.465653677820228
0.08,2.4802880263014231
0.084,2.5030525683832821
0.088,2.5417522899224423
0.092,2.5693949481646996
0.096,2.5807772192056291
0.1,2.5957367754308507
0.104,2.6302087962976657
0.108,2.6659816481405869
0.112,2.6815916198538616
0.116,2.6884209824784193
0.12,2.7186653026728891
0.124,2.7589910629321821
0.128,2.7742758269014303
0.132,2.7680968797649257
0.136,2.7622431403724477
0.14,2.7645195945806336
0.144,2.7625683481164742
0.148,2.7411046370107215
0.152,2.7323240279220045
0.156,2.7228930033452343
0.16,2.7037057464476675
0.164,2.6633799861883745
0.168,2.635086912458064
0.172,2.6230542259290814
0.176,2.5996392683591694
0.18,2.5550858074275311
0.184,2.5157356704003178
0.188,2.5014265296631493
0.192,2.4799628185573965
0.196,2.4409378892742097
0.2,2.4051650374312885
0.204,2.3902054812060669
0.208,2.3752459249808453
0.212,2.3472780589945614
0.216,2.3280908020969946
0.22,2.3342697492334992
0.224,2.3332941260014195
0.228,2.3199606084963307
0.232,2.3053262600151356
0.236,2.310204376175534
0.24,2.318984985264251
0.244,2.3079279219673481
0.248,2.2864642108615953
0.252,2.2825617179332767
0.256,2.2939439889742061
0.26,2.296220443182392
0.264,2.2851633798854891
0.268,2.2741063165885862
0.272,2.2754071475646924
0.276,2.2676021617080551
0.28,2.2519921899947803
0.284,2.2464636583463289
0.288,2.2594719681073911
0.292,2.2711794468923472
0.296,2.2760575630527455
0.3,2.2799600559810642
0.304,2.2884154573257547
0.308,2.2955700276943389
0.312,2.2877650418377016
0.316,2.2848381721414626
0.32,2.3082531297113746
0.324,2.3410991118580569
0.328,2.3524813828989863
0.332,2.3427251505781896
0.336,2.3518309674109332
0.34,2.3690669778443407
0.344,2.3638636539399158
0.348,2.3557334603392519
0.352,2.3706930165644735
0.356,2.3973600515746512
0.36,2.4132952310319524
0.364,2.4064658684073947
0.368,2.4071162838954479
0.372,2.4188237626804039
0.376,2.425327917560935
0.38,2.4155716852401383
0.384,2.4168725162162445
0.388,2.4227262556087226
0.392,2.4162221007281914
0.396,2.4035389987111557
0.4,2.3957340128545184
0.404,2.4142708542640321
0.408,2.4337833189056255
0.412,2.4201245936565101
0.416,2.3960592205985449
0.42,2.3846769495576154
0.424,2.3830509108374827
0.428,2.3781727946770843
0.432,2.3671157313801814
0.436,2.3680913546122611
0.44,2.3654896926600486
0.444,2.3453268125304021
0.448,2.3274403866089415
0.452,2.3193101930082776
0.456,2.3144320768478792
0.46,2.3017489748308435
0.464,2.2825617179332767
0.468,2.2910171192779671
0.472,2.3186597775202245
0.476,2.3342697492334992
0.48,2.3274403866089415
0.484,2.3199606084963307
0.488,2.3245135169127025
0.492,2.3267899711208884
0.496,2.3173589465441182
0.5,2.3108547916635871
0.504,2.3141068691038527
0.508,2.3206110239843838
0.512,2.3056514677591622
0.516,2.2939439889742061
0.52,2.3076027142233215
0.524,2.3310176717932336
0.528,2.3238631014246494
0.532,2.3059766755031887
0.536,2.301423767086817
0.54,2.3059766755031887
0.544,2.3098791684315074
0.548,2.3124808303837199
0.552,2.3215866472164635
0.556,2.327765594352968
0.56,2.3297168408171274
0.564,2.3202858162403572
0.568,2.3124808303837199
0.572,2.3134564536157995
0.576,2.2978464819025248
0.58,2.2718298623804003
0.584,2.2614232145715505
0.588,2.2737811088445596
0.592,2.2747567320766393
0.596,2.2591467603633646
0.6,2.2627240455476567
0.604,2.2809356792131439
0.608,2.2978464819025248
0.612,2.2884154573257547
0.616,2.2760575630527455
0.62,2.2773583940288518
0.624,2.2861390031175688
0.628,2.2919927425100468
0.632,2.2936187812301796
0.636,2.2991473128786311
0.64,2.293293573486153
0.644,2.2760575630527455
0.648,2.2565450984111521
0.652,2.2497157357865945
0.656,2.2545938519469928
0.66,2.2539434364589397
0.664,2.2337805563292932
0.668,2.2227234930323903
0.672,2.2227234930323903
0.676,2.2630492532916833
0.68,2.3349201647215523
0.684,2.4250027098169085
0.688,2.5511833144992124
0.692,2.66663206362864
0.696,2.8051705625839531
0.7,2.9485871776996646
0.704,3.0178564271773212
0.708,2.9300503362901509
0.712,2.6653312326525338
0.716,2.3580099145474378
0.72,2.186950641189469
0.724,2.1410963492817245
0.728,2.13491740214522
0.732,2.1599583984352648
0.736,2.2015849896706641
0.74,2.238333464745665
0.744,2.2474392815784086
0.748,2.2302032711450011
0.752,2.2223982852883637
0.756,2.2302032711450011
0.76,2.2249999472405761
0.764,2.2048370671109296
0.768,2.2028858206467703
0.772,2.2188210001040716
0.776,2.2175201691279653
0.78,2.2012597819266375
0.784,2.1924791728379205
0.788,2.1976824967423454
0.792,2.192804380581947
0.796,2.172316292708274
0.8,2.1700398385000881
0.804,2.1807716940529644
0.808,2.1856498102133628
0.812,2.1690642152680084
0.816,2.1635356836195569
0.82,2.1791456553328317
0.824,2.206788313575089
0.828,2.2142680916876998
0.832,2.2106908065034077
0.836,2.2259755704726558
0.84,2.2451628273702227
0.844,2.250040943530621
0.848,2.2477644893224351
0.852,2.2721550701244269
0.856,2.3020741825748701
0.86,2.3059766755031887
0.864,2.2942691967182327
0.868,2.2945944044622593
0.872,2.3040254290390294
0.876,2.3069522987352684
0.88,2.2952448199503124
0.884,2.2978464819025248
0.888,2.3173589465441182
0.892,2.3303672563051805
0.896,2.3193101930082776
0.9,2.3079279219673481
0.904,2.313131245871773
0.908,2.3176841542881448
0.912,2.3150824923359323
0.916,2.3212614394724369
0.92,2.3453268125304021
0.924,2.3606115764996503
0.928,2.3680913546122611
0.932,2.3710182243085001
0.936,2.3892298579739872
0.94,2.407766699383501
0.944,2.4041894141992088
0.948,2.3739450940047391
0.952,2.3541074216191191
0.956,2.3371966189297382
0.96,2.3202858162403572
0.964,2.3033750135509763
0.968,2.2994725206226576
0.972,2.2955700276943389
0.976,2.2705290314042941
0.98,2.2497157357865945
0.984,2.2393090879777446
0.988,2.2461384506023023
0.992,2.2435367886500899
0.996,2.2389838802337181
1,2.2302032711450011
1.004,2.2233739085204434
1.008,2.2136176761996467
1.012,2.2045118593669031
1.016,2.1999589509505313
1.02,2.2054874825989828
1.024,2.2123168452235404
1.028,2.1944304193020798
1.032,2.1729667081963271
1.036,2.1687390075239819
1.04,2.1768692011246458
1.044,2.1697146307560615
1.048,2.1446736344660167
1.052,2.1358930253772996
1.056,2.1388198950735386
1.06,2.1394703105615918
1.064,2.1215838846401311
1.068,2.1241855465923436
1.072,2.1417467647697777
1.076,2.1388198950735386
1.08,2.1170309762237594
1.084,2.0971933038381394
1.088,2.0916647721896879
1.092,2.0988193425582722
1.096,2.0939412263978738
1.1,2.0845102018211037
1.104,2.0900387334695552
1.108,2.0949168496299535
1.112,2.0906891489576083
1.116,2.0871118637733161
1.12,2.0936160186538473
1.124,2.1020714199985377
1.128,2.0939412263978738
1.132,2.0841849940770771
1.136,2.0841849940770771
1.14,2.0910143567016348
1.144,2.0867866560292896
1.148,2.0789816701726522
1.152,2.0923151876777411
1.156,2.1053234974388033
1.16,2.0971933038381394
1.164,2.0812581243808381
1.168,2.0932908109098207
1.172,2.1176813917118125
1.176,2.1326409479370341
1.18,2.1160553529916797
1.184,2.0949168496299535
1.188,2.0988193425582722
1.192,2.112152860063361
1.196,2.1082503671350423
1.2,2.1118276523193344
1.204,2.1144293142715469
1.208,2.1193074304319452
1.212,2.1049982896947768
1.216,2.0890631102374755
1.22,2.0851606173091568
1.224,2.0884126947494224
1.228,2.0802825011487585
1.232,2.0526398429065011
1.236,2.0425584028416779
1.24,2.0441844415618107
1.244,2.0406071563775185
1.248,2.0295500930806156
1.252,2.0298753008246422
1.256,2.0480869344901294
1.26,2.0532902583945543
1.264,2.0480869344901294
1.268,2.0438592338177841
1.272,2.0448348570498638
1.276,2.0383307021693327
1.28,2.0318265472888015
1.284,2.0448348570498638
1.288,2.0636969062034041
1.292,2.0773556314525194
1.296,2.0900387334695552
1.3,2.0994697580463253
1.304,2.1160553529916797
1.308,2.1420719725138042
1.312,2.1443484267219901
1.316,2.1287384550087154
1.32,2.1284132472646888
1.324,2.1248359620803967
1.328,2.1043478742067236
1.332,2.0871118637733161
1.336,2.0890631102374755
1.34,2.100445381278405
1.344,2.1056487051828299
1.348,2.100445381278405
1.352,2.0942664341419004
1.356,2.0971933038381394
1.36,2.0926403954217676
1.364,2.0854858250531834
1.368,2.0825589553569444
1.372,2.0838597863330506
1.376,2.0848354095651302
1.38,2.0744287617562804
1.384,2.0705262688279618
1.388,2.0949168496299535
1.392,2.1173561839677859
1.396,2.1089007826230954
1.4,2.0958924728620332
1.404,2.089388317981502
1.408,2.0741035540122539
1.412,2.0568675435788464
1.416,2.0506885964423418
1.42,2.0728027230361477
1.424,2.1417467647697777
1.428,2.2399595034657978
1.432,2.3615871997317299
1.436,2.4929711283184588
1.44,2.6393146131304093
1.444,2.7911866295908112
1.448,2.8910254070069641
1.452,2.8380165447306354
1.456,2.6188265252567362
1.46,2.2650004997558426
1.464,1.9827201779407915
1.468,1.8724747527157888
1.472,1.8851578547328245
1.476,1.9332886008487549
1.48,1.9996309806301724
1.484,2.0610952442511916
1.488,2.1030470432306174
1.492,2.1332913634250872
1.496,2.1449988422100432
1.5,2.1469500886742026
1.504,2.1719910849642474
1.508,2.2015849896706641
1.512,2.2113412219914608
1.516,2.2103655987593811
1.52,2.224349531752523
1.524,2.2389838802337181
1.528,2.2510165667627007
1.532,2.2497157357865945
1.536,2.266951746220002
1.54,2.2884154573257547
1.544,2.2942691967182327
1.548,2.2867894186056219
1.552,2.293293573486153
1.556,2.3150824923359323
1.56,2.3297168408171274
1.564,2.3362209956976585
1.568,2.3443511892983224
1.572,2.3537822138750926
1.576,2.3573594990593847
1.58,2.3550830448511988
1.584,2.3687417701003142
1.588,2.3928071431582794
1.592,2.4035389987111557
1.596,2.4022381677350495
1.6,2.4071162838954479
1.604,2.4289052027452271
1.608,2.4558974454994313
1.612,2.4591495229396969
1.616,2.4617511848919094
1.62,2.4734586636768654
1.624,2.488418219902087
1.628,2.4965484135027509
1.632,2.5043533993593883
1.636,2.517036501376424
1.64,2.5284187724173535
1.644,2.5267927336972207
1.648,2.5264675259531941
1.652,2.5440287441306282
1.656,2.5703705713967793
1.66,2.5703705713967793
1.664,2.5511833144992124
1.668,2.5440287441306282
1.672,2.548581652547
1.676,2.5420774976664688
1.68,2.5134592161921319
1.684,2.4958979980146978
1.688,2.4936215438065119
1.692,2.485491350205848
1.696,2.4601251461717766
1.7,2.4516697448270861
1.704,2.4578486919635907
1.708,2.4506941215950064
1.712,2.4181733471923508
1.716,2.3980104670627043
1.72,2.4058154529193416
1.724,2.4272791640250944
1.728,2.4188237626804039
1.732,2.4058154529193416
1.736,2.413620438775979
1.74,2.4285799950012006
1.744,2.4298808259773068
1.748,2.4214254246326163
1.752,2.419474178168457
1.756,2.4220758401206695
1.76,2.416547308472218
1.764,2.4142708542640321
1.768,2.4201245936565101
1.772,2.4344337343936786
1.776,2.4373606040899176
1.78,2.4318320724414662
1.784,2.4318320724414662
1.788,2.4467916286666878
1.792,2.4526453680591658
1.796,2.4529705758031923
1.8,2.4575234842195641
1.804,2.4663040933082812
1.808,2.4819140650215559
1.812,2.4757351178850513
1.816,2.4692309630045202
1.82,2.4910198818542995
1.824,2.5105323464958929
1.828,2.5115079697279725
1.832,2.5053290225914679
1.836,2.5212642020487692
1.84,2.5469556138268672
1.844,2.5518337299872655
1.848,2.542727913154522
1.852,2.5404514589463361
1.856,2.5476060293149203
1.86,2.5440287441306282
1.864,2.52874398016138
1.868,2.5235406562569551
1.872,2.5267927336972207
1.876,2.5245162794890348
1.88,2.5235406562569551
1.884,2.5310204343695659
1.888,2.5557362229155842
1.892,2.5768747262773104
1.896,2.5762243107892573
1.9,2.5775251417653635
1.904,2.5850049198779743
1.908,2.588907412806293
1.912,2.5807772192056291
1.916,2.5641916242602747
1.92,2.5700453636527527
1.924,2.5788259727414697
1.928,2.5739478565810714
1.932,2.566142870724434
1.936,2.5706957791408058
1.94,2.5762243107892573
1.944,2.5654924552363809
1.948,2.5508581067551859
1.952,2.5583378848677967
1.956,2.5697201559087262
1.96,2.5693949481646996
1.964,2.5570370538916904
1.968,2.5511833144992124
1.972,2.5622403777961154
1.976,2.5658176629804075
1.98,2.5615899623080622
1.984,2.563216001028195
1.988,2.5723218178609386
1.992,2.5814276346936822
1.996,2.5680941171885934
2,2.554435391939478
2.004,2.5586630926118232
2.008,2.5554110151715577
2.012,2.5414270821784157
2.016,2.5401262512023095
2.02,2.5612647545640357
2.024,2.5697201559087262
2.028,2.5557362229155842
2.032,2.545654782850761
2.036,2.5407766666903626
2.04,2.5365489660180174
2.044,2.5339473040658049
2.048,2.5313456421135925
2.052,2.5528093532193452
2.056,2.5843545043899212
2.06,2.5941107367107179
2.064,2.5960619831748772
2.068,2.5999644761031959
2.072,2.6058182154956739
2.076,2.6048425922635943
2.08,2.5957367754308507
2.084,2.5856553353660274
2.088,2.5804520114616025
2.092,2.5703705713967793
2.096,2.5528093532193452
2.1,2.5385002124821767
2.104,2.5424027054104954
2.108,2.5463051983388141
2.112,2.5411018744343892
2.116,2.5358985505299643
2.12,2.545654782850761
2.124,2.5476060293149203
2.128,2.5401262512023095
2.132,2.5332968885777518
2.136,2.5336220963217784
2.14,2.5375245892500971
2.144,2.5280935646733269
2.148,2.5235406562569551
2.152,2.5388254202262033
2.156,2.5580126771237701
2.16,2.5593135080998763
2.164,2.5502076912671328
2.168,2.5537849764514249
2.172,2.5671184939565137
2.176,2.5586630926118232
2.18,2.5472808215708937
2.184,2.563216001028195
2.188,2.6367129511781968
2.192,2.7362265208503231
2.196,2.8383417524746619
2.2,2.933627621474443
2.204,3.0565561487164814
2.208,3.1996475560881663
2.212,3.2946082173439208
2.216,3.2633882739173714
2.22,3.0900525463512167
2.224,2.7765522811096162
2.228,2.5007761141750962
2.232,2.3758963404688984
2.236,2.3755711327248719
2.24,2.4276043717691209
2.244,2.4734586636768654
2.248,2.5046786071034148
2.252,2.5365489660180174
2.256,2.5703705713967793
2.26,2.5814276346936822
2.264,2.5752486875571776
2.268,2.5775251417653635
2.272,2.588907412806293
2.276,2.5928099057346117
2.28,2.5872813740861602
2.284,2.588907412806293
2.288,2.5931351134786382
2.292,2.5915090747585054
2.296,2.5814276346936822
2.3,2.5765495185332838
2.304,2.583053673413815
2.308,2.5941107367107179
2.312,2.5905334515264258
2.316,2.5833788811578415
2.32,2.5869561663421337
2.324,2.5937855289666913
2.328,2.5885822050622664
2.332,2.5963871909189038
2.336,2.6152492400724441
2.34,2.6419162750826217
2.344,2.6529733383795246
2.348,2.6545993770996574
2.352,2.6627295707003213
2.356,2.6754126727173571
2.36,2.677689126925543
2.364,2.669558933324879
2.368,2.669558933324879
2.372,2.6845184895501006
2.376,2.6945999296149239
2.38,2.6942747218708973
2.384,2.7004536690074019
2.388,2.7186653026728891
2.392,2.729722365969792
2.396,2.7346004821301904
2.4,2.7433810912189074
2.404,2.7645195945806336
2.408,2.770048126229085
2.412,2.7593162706762087
2.416,2.758340647444129
2.42,2.7690725029970054
2.424,2.7706985417171381
2.428,2.7596414784202352
2.432,2.7625683481164742
2.436,2.7713489572051913
2.44,2.7713489572051913
2.444,2.7638691790925805
2.448,2.7482592073793057
2.452,2.7456575454270933
2.456,2.7485844151233323
2.46,2.7518364925635979
2.464,2.7453323376830667
2.468,2.7394785982905887
2.472,2.7430558834748808
2.476,2.746633168659173
2.48,2.7437062989629339
2.484,2.7479339996352792
2.488,2.7706985417171381
2.492,2.8022436928877141
2.496,2.8367157137545291
2.5,2.8711877346213441
2.504,2.9137899490888231
2.508,2.9420830228191335
2.512,2.9463107234914787
2.516,2.9511888396518771
2.52,2.9726525507576298
2.524,3.0015960399759933
2.528,3.0152547652251087
2.532,3.0263118285220116
2.536,3.0500519938359503
2.54,3.0692392507335171
2.544,3.0799711062863935
2.548,3.0692392507335171
2.552,3.0666375887813047
2.556,3.0955810779996682
2.56,3.1196464510576334
2.564,3.1121666729450226
2.568,3.1027356483682524
2.572,3.103060856112279
2.576,3.0968819089757744
2.58,3.0815971450065263
2.584,3.0659871732932515
2.588,3.0630603035970125
2.592,3.074442574637942
2.596,3.0737921591498889
2.6,3.071515704941703
2.604,3.0747677823819686
2.608,3.0659871732932515
2.612,3.0409461770032067
2.616,3.0256614130339585
2.62,3.0331411911465693
2.624,3.0389949305390473
2.628,3.0178564271773212
2.632,2.9892381457029842
2.636,2.9716769275255501
2.64,2.9547661248361692
2.644,2.9326519982423633
2.648,2.9111882871366106
2.652,2.9105378716485575
2.656,2.9033833012799732
2.66,2.8721633578534238
2.664,2.8354148827784229
2.668,2.8295611433859449
2.672,2.8399677911947947
2.676,2.8458215305872727
2.68,2.8347644672903698
2.684,2.8240326117374934
2.688,2.8201301188091747
2.692,2.8012680696556345
2.696,2.7739506191574037
2.7,2.7528121157956775
2.704,2.7521617003076244
2.708,2.7518364925635979
2.712,2.7459827531711198
2.716,2.7329744434100576
2.72,2.7254946652974468
2.724,2.7144376020005438
2.728,2.7014292922394816
2.732,2.6955755528470036
2.736,2.7014292922394816
2.74,2.704030954191694
2.744,2.6848436972941272
2.748,2.6630547784443479
2.752,2.6500464686832856
2.756,2.6438675215467811
2.76,2.6318348350177985
2.764,2.6188265252567362
2.768,2.6198021484888159
2.772,2.626306303369347
2.776,2.6103711239120457
2.78,2.5814276346936822
2.784,2.5687445326766465
2.788,2.5785007649974432
2.792,2.5713461946288589
2.796,2.5508581067551859
2.8,2.5362237582739908
2.804,2.5313456421135925
2.808,2.5189877478405833
2.812,2.4871173889259808
2.816,2.451019329339033
2.82,2.4331329034175724
2.824,2.4175229317042977
2.828,2.3804492488852702
2.832,2.3427251505781896
2.836,2.3163833233120386
2.84,2.2877650418377016
2.844,2.2597971758514177
2.848,2.2402847112098243
2.852,2.2487401125545148
2.856,2.2861390031175688
2.86,2.3150824923359323
2.864,2.3254891401447821
2.868,2.3414243196020834
2.872,2.3508553441788536
2.876,2.3437007738102693
2.88,2.3209362317284103
2.884,2.2997977283666842
2.888,2.2763827707967721
2.892,2.2370326337695587
2.896,2.1918287573498674
2.9,2.1593079829472117
2.904,2.1596331906912383
2.908,2.1489013351383619
2.912,2.1235351311042905
2.916,2.0962176806060597
2.92,2.0633716984593775
2.924,2.0288996775925625
2.928,1.9554027274425607
2.932,1.856214365514461
2.936,1.7560503803542815
2.94,1.6545855642179959
2.944,1.5414132692967542
2.948,1.4360459602321498
2.952,1.3612481791060418
2.956,1.2984830845089164
2.96,1.2201080181985162
2.964,1.1352287970075849
2.968,1.0643335088097956
2.972,0.99831633677240461
2.976,0.91636398527771235
2.98,0.82107811627793126
2.984,0.73489806411089376
2.988,0.66953130756155588
2.992,0.65001884291996248
2.996,0.6708321385376621
3,0.72026371562969871
3.004,0.7960371199878864
3.008,0.84872077452018857
3.012,0.89880276710027829
3.016,0.94758392870426178
3.02,0.92156730918213725
3.024,0.75343490552040748
3.028,0.43343048539827578
3.032,0.094564016122603789
3.036,0.0018798090750351548
3.04,0.0015546013310085982
3.044,0.0015546013310085982
3.048,0.0018798090750351548
3.052,0.0018798090750351548
3.056,0.0018798090750351548
3.06,0.0018798090750351548
3.064,0.0012293935869820416
3.068,0.0022050168190617114
3.072,0.0018798090750351548
3.076,0.0018798090750351548
3.08,0.00090418584295548499
3.084,0.0018798090750351548
3.088,0.0012293935869820416
3.092,0.0022050168190617114
3.096,0.0022050168190617114
3.1,0.0018798090750351548
3.104,0.0018798090750351548
3.108,0.0018798090750351548
3.112,0.0015546013310085982
3.116,0.0015546013310085982
3.12,0.0018798090750351548
3.124,0.0012293935869820416
3.128,0.0015546013310085982
3.132,0.0018798090750351548
3.136,0.0015546013310085982
3.14,0.0022050168190617114
3.144,0.0018798090750351548
3.148,0.00057897809892892838
3.152,0.0022050168190617114
3.156,0.0015546013310085982
3.16,0.0012293935869820416
3.164,0.0012293935869820416
3.168,0.0015546013310085982
3.172,0.0015546013310085982
3.176,0.0015546013310085982
3.18,0.0015546013310085982
3.184,0.0018798090750351548
3.188,0.0022050168190617114
3.192,0.0022050168190617114
3.196,0.0015546013310085982
3.2,0.0015546013310085982
3.204,0.0018798090750351548
3.208,0.0015546013310085982
3.212,0.0012293935869820416
3.216,0.0022050168190617114
3.22,0.0028554323071148247
3.224,0.0022050168190617114
3.228,0.033099752501584589
3.232,0.077653213433222845
3.236,0.11765376594848931
3.24,0.14106872351840138
3.244,0.15180057907127775
3.248,0.15570307199959643
3.252,0.17196345920092426
3.256,0.18237010700977407
3.26,0.19212633933057077
3.264,0.20480944134760648
3.268,0.22854960666154511
3.272,0.25716788813588209
3.276,0.26367204301641323
3.28,0.26269641978433356
3.284,0.2796072224737145
3.288,0.30692467297194526
3.292,0.33294129249406978
3.296,0.35635625006398186
3.3,0.39668201032327488
3.304,0.43895901704672724
3.308,0.46562605205690488
3.312,0.48643934767460451
3.316,0.51375679817283526
3.32,0.55213131196796894
3.324,0.5846520863706246
3.328,0.61131912138080224
3.332,0.65229529712814838
3.336,0.69912521226797253
3.34,0.74985762033611536
3.344,0.79311025029164739
3.348,0.83311080280691385
3.352,0.89034736575558782
3.356,0.94498226675204933
3.36,0.98628365024342202
3.364,1.0152271394617856
3.368,1.0545772764889989
3.372,1.1059601000451948
3.376,1.1518143919529393
3.38,1.193115775444312
3.384,1.2386448596080299
3.388,1.2962066303007305
3.392,1.3342559363518376
3.396,1.368402749474626
3.4,1.3996226929011755
3.404,1.4298670130956452
3.408,1.4669406959146727
3.412,1.4949085619009566
3.416,1.5264537130715325
3.42,1.5602753184502944
3.424,1.5856415224843659
3.428,1.6113329342624638
3.432,1.644178916409146
3.436,1.6825534302042797
3.44,1.7254808524157852
3.444,1.7580016268184409
3.448,1.779140130180167
3.452,1.8074332039104775
3.456,1.8419052247772925
3.46,1.8741007914359216
3.464,1.9062963580945507
3.468,1.9453212873777375
3.472,1.9898747483093757
3.476,2.020444276247872
3.48,2.0458104802819435
3.484,2.0851606173091568
3.488,2.1355678176332731
3.492,2.1755683701485395
3.496,2.2106908065034077
3.5,2.2568703061551787
3.504,2.3020741825748701
3.508,2.3456520202744287
3.512,2.3794736256531905
3.516,2.4211002168885898
3.52,2.4663040933082812
3.524,2.5092315155197866
3.528,2.5648420397483278
3.532,2.6386641976423562
3.536,2.718014887184836
3.54,2.786958928918466
3.544,2.8490736080275383
3.548,2.9131395336007699
3.552,2.9970431315596215
3.556,3.0822475604945794
3.56,3.1641999119892716
3.564,3.2337943692109548
3.568,3.3059904883848503
3.572,3.3655035055417102
3.576,3.4113577974494547
3.58,3.4429029486200307
3.584,3.491033694735961
3.588,3.5648558526299894
3.592,3.6406292569881771
3.596,3.6991666509129573
3.6,3.746321773796808
3.604,3.7905500269844197
3.608,3.8354286956600845
3.612,3.8682746778067667
3.616,3.9115273077622987
3.62,3.9684386629669461
3.624,4.0110408774344251
3.628,4.0331550040282309
3.632,4.0555943383660633
3.636,4.0887655282567721
3.64,4.1203106794273481
3.644,4.1303921194921713
3.648,4.1489289609016851
3.652,4.1668153868231457
3.656,4.1788480733521283
3.66,4.1986857457377482
3.664,4.2224259110516869
3.668,4.2481173228297848
3.672,4.2764103965600953
3.676,4.3034026393142994
3.68,4.3248663504200522
3.684,4.3473056847578846
3.688,4.3664929416554514
3.692,4.3694198113516904
3.696,4.3642164874472655
3.7,4.3622652409831062
3.704,4.366818149399478
3.708,4.3703954345837701
3.712,4.375598758488195
3.716,4.3821029133687261
3.72,4.3931599766656291
3.724,4.389582691481337
3.728,4.3723466810479295
3.732,4.358037540310761
3.736,4.3655173184233718
3.74,4.3944608076417353
3.744,4.4221034658839926
3.748,4.453323409310542
3.752,4.4858441837131977
3.756,4.510559972259216
3.76,4.5203162045800127
3.764,4.5102347645151895
3.768,4.504706232866738
3.772,4.5099095567711629
3.776,4.5112103877472691
3.78,4.5082835180510301
3.784,4.5073078948189504
3.788,4.4978768702421803
3.792,4.467307342303684
3.796,4.42990845174063
3.8,4.4116968180751428
3.804,4.4318596982047893
3.808,4.4982020779862069
3.812,4.5785283907607663
3.816,4.6523505486547947
3.82,4.6744646752486005
3.824,4.6877981927536894
3.828,4.6946275553782471
3.832,4.6975544250744861
3.836,4.6959283863543533
3.84,4.6819444533612113
3.844,4.585357753385324
3.848,4.2874674598569982
3.852,4.0835622043523472
3.856,4.0055123457859736
3.86,3.9973821521853097
3.864,4.0090896309702657
3.868,4.0194962787791155
3.872,4.0227483562193811
3.876,4.0126669161545578
3.88,4.0003090218815487
3.884,4.002260268345708
3.888,3.9990081909054425
3.892,3.9694142861990258
3.896,3.9320153956359718
3.9,3.9037223219056614
3.904,3.8920148431207053
3.908,3.8822586107999086
3.912,3.861445315182209
3.916,3.832827033707872
3.92,3.8159162310184911
3.924,3.7912004424724728
3.928,3.763882991974242
3.932,3.7284353478753474
3.936,3.7024187283532228
3.94,3.6760769010870717
3.944,3.6497350738209207
3.948,3.623068038810743
3.952,3.6038807819131762
3.956,3.5746120849507861
3.96,3.5303838317631744
3.964,3.4929849412001204
3.968,3.4786758004629519
3.972,3.4679439449100755
3.976,3.4464802338043228
3.98,3.4253417304425966
3.984,3.4038780193368439
3.988,3.3807882695109583
3.992,3.3528204035246745
3.996,3.318673590401886
4,3.2942830095998943
4.004,3.2799738688627258
4.008,3.263713481661398
4.012,3.2396481086034328
4.016,3.221111267193919
4.02,3.1983467251120601
4.024,3.1759073907742277
4.028,3.14924035576405
4.032,3.1134675039211288
4.036,3.0812719372624997
4.04,3.0633855113410391
4.044,3.0334663988905959
4.048,3.0064741561363917
4.052,2.993791054119356
4.056,2.9677744345972314
4.06,2.9124891181127168
4.064,2.8497240235155914
4.068,2.8025689006317407
4.072,2.7697229184850585
4.076,2.7251694575534202
4.08,2.6731362185091712
4.084,2.632160042761825
4.088,2.5898830360383727
4.092,2.5388254202262033
4.096,2.4812636495335028
4.1,2.4383362273219973
4.104,2.4110187768237665
4.108,2.3853273650456686
4.112,2.353457006131066
4.116,2.3225622704485431
4.12,2.3010985593427904
4.124,2.2708542391483206
4.128,2.2347561795613728
4.132,2.2012597819266375
4.136,2.1905279263737611
4.14,2.1742675391724333
4.144,2.1508525816025212
4.148,2.1293888704967685
4.152,2.1287384550087154
4.156,2.1264620008005295
4.16,2.1102016135992017
4.164,2.0838597863330506
4.168,2.0734531385242008
4.172,2.0711766843160149
4.176,2.0604448287631385
4.18,2.0458104802819435
4.184,2.0389811176573858
4.188,2.0406071563775185
4.192,2.0363794557051733
4.196,2.0308509240567219
4.2,2.0321517550328281
4.204,2.0389811176573858
4.208,2.0363794557051733
4.212,2.0197938607598189
4.216,2.0168669910635799
4.22,2.0302005085686687
4.224,2.0350786247290671
4.228,2.0282492621045094
4.232,2.0214198994799517
4.236,2.0136149136233144
4.24,2.0110132516711019
4.244,2.0139401213673409
4.248,2.011663667159155
4.252,2.0106880439270753
4.256,2.0019074348383583
4.26,1.9745899843401276
4.264,1.9492237803060561
4.268,1.9378415092651267
4.272,1.9401179634733126
4.276,1.9329633931047283
4.28,1.9271096537122503
4.284,1.9319877698726486
4.288,1.9375163015211001
4.292,1.9323129776166752
4.296,1.9160525904153474
4.3,1.9189794601115864
4.304,1.9297113156644627
4.308,1.9342642240808345
4.312,1.9290609001764096
4.316,1.9287356924323831
4.32,1.9290609001764096
4.324,1.9248331995040644
4.328,1.9137761362071615
4.332,1.902393865166232
4.336,1.8991417877259664
4.34,1.8988165799819399
4.344,1.899466995469993
4.348,1.9085728123027366
4.352,1.9206054988317192
4.356,1.9232071607839316
4.36,1.9180038368795067
4.364,1.9056459426064976
4.368,1.9075971890706569
4.372,1.9176786291354802
4.376,1.9137761362071615
4.38,1.9069467735826038
4.384,1.9027190729102585
4.388,1.90824760455871
4.392,1.9128005129750818
4.396,1.9101988510228693
4.4,1.9196298755996395
4.404,1.9267844459682237
4.408,1.9277600692003034
4.412,1.9154021749272943
4.416,1.9075971890706569
4.42,1.9118248897430021
4.424,1.9150769671832677
4.428,1.9105240587668959
4.432,1.9066215658385772
4.436,1.9105240587668959
4.44,1.9235323685279582
4.444,1.9212559143197723
4.448,1.9092232277907897
4.452,1.90824760455871
4.456,1.9228819530399051
4.46,1.9349146395688877
4.464,1.9313373543845955
4.468,1.9316625621286221
4.472,1.9313373543845955
4.476,1.9267844459682237
4.48,1.925158407248091
4.484,1.9394675479852594
4.488,1.9622320900671184
4.492,1.9823949701967649
4.496,1.9836958011728711
4.5,1.9869478786131367
4.504,1.9986553573980927
4.508,1.9986553573980927
4.512,1.9892243328213226
4.516,1.9862974631250836
4.52,1.9901999560534023
4.524,1.994102448981721
4.528,1.9823949701967649
4.532,1.9710126991558354
4.536,1.9622320900671184
4.54,1.9563783506746404
4.544,1.9537766887224279
4.548,1.9570287661626935
4.552,1.9693866604357027
4.556,1.9762160230602603
4.56,1.9820697624527384
4.564,1.9885739173332695
4.568,1.9973545264219865
4.572,2.0080863819748629
4.576,2.0064603432547301
4.58,2.0184930297837127
4.584,2.0298753008246422
4.588,2.0370298711932264
4.592,2.0318265472888015
4.596,2.028574469848536
4.6,2.0292248853365891
4.604,2.0275988466164563
4.608,2.0305257163126953
4.612,2.0419079873536248
4.616,2.0952420573739801
4.62,2.1915035496058408
4.624,2.3193101930082776
4.628,2.4519949525711127
4.632,2.5791511804854963
4.636,2.7332996511540841
4.64,2.8650087874848396
4.644,2.8562281783961225
4.648,2.6841932818060741
4.652,2.3615871997317299
4.656,2.068900230107829
4.66,1.92808527694433
4.664,1.9154021749272943
4.668,1.9537766887224279
4.672,2.0136149136233144
4.676,2.0516642196744215
4.68,2.0734531385242008
4.684,2.1027218354865909
4.688,2.13491740214522
4.692,2.1511777893465478
4.696,2.1573567364830524
4.7,2.1732919159403536
4.704,2.1905279263737611
4.708,2.206788313575089
4.712,2.2074387290631421
4.716,2.2100403910153545
4.72,2.2223982852883637
4.724,2.2360570105374791
4.728,2.2376830492576119
4.732,2.2464636583463289
4.736,2.2594719681073911
4.74,2.2581711371312849
4.744,2.2445124118821695
4.748,2.2419107499299571
4.752,2.2571955138992053
4.756,2.2633744610357098
4.76,2.2614232145715505
4.764,2.2734559011005331
4.768,2.3004481438547373
4.772,2.3261395556328353
4.776,2.3345949569775257
4.78,2.3332941260014195
4.784,2.3430503583222162
4.788,2.3602863687556237
4.792,2.3788232101651374
4.796,2.3817500798613764
4.8,2.3876038192538545
4.804,2.3980104670627043
4.808,2.4009373367589433
4.812,2.3970348438306246
4.816,2.396709636086598
4.82,2.413620438775979
4.824,2.4204498014005367
4.828,2.4149212697520852
4.832,2.4233766710967757
4.836,2.448092459642794
4.84,2.4679301320284139
4.844,2.4659788855642546
4.848,2.4565478609874845
4.852,2.4591495229396969
4.856,2.4650032623321749
4.86,2.4646780545881484
4.864,2.4617511848919094
4.868,2.4669545087963343
4.872,2.4650032623321749
4.876,2.4545966145233251
4.88,2.4376858118339442
4.884,2.4188237626804039
4.888,2.3963844283425715
4.892,2.3719938475405797
4.896,2.3596359532675706
4.9,2.3641888616839424
4.904,2.3726442630286328
4.908,2.3684165623562876
4.912,2.3576847068034112
4.916,2.353457006131066
4.92,2.3469528512505349
4.924,2.3384974499058444
4.928,2.3228874781925697
4.932,2.3167085310560651
4.936,2.3167085310560651
4.94,2.3118304148956668
4.944,2.3079279219673481
4.948,2.3066270909912419
4.952,2.3212614394724369
4.956,2.3280908020969946
4.96,2.3186597775202245
4.964,2.3170337388000917
4.968,2.3326437105133664
4.972,2.3394730731379241
4.976,2.330692464049207
4.98,2.3202858162403572
4.984,2.318984985264251
4.988,2.330692464049207
4.992,2.3384974499058444
4.996,2.3362209956976585
5,2.3423999428341631
5.004,2.3479284744826145
5.008,2.3453268125304021
5.012,2.3375218266737647
5.016,2.338822657649871
5.02,2.347603266738588
5.024,2.353457006131066
5.028,2.3596359532675706
5.032,2.373294678516686
5.036,2.3918315199261997
5.04,2.3973600515746512
5.044,2.39085589669412
5.048,2.3876038192538545
5.052,2.4032137909671292
5.056,2.416547308472218
5.06,2.4022381677350495
5.064,2.3915063121821731
5.068,2.3960592205985449
5.072,2.4103683613357134
5.076,2.4110187768237665
5.08,2.3986608825507574
5.084,2.3911811044381466
5.088,2.3924819354142528
5.092,2.3934575586463325
5.096,2.3902054812060669
5.1,2.3902054812060669
5.104,2.3973600515746512
5.108,2.4019129599910229
5.112,2.3934575586463325
5.116,2.3889046502299607
5.12,2.3980104670627043
5.124,2.4058154529193416
5.128,2.3976852593186777
5.132,2.3882542347419076
5.136,2.3973600515746512
5.14,2.4028885832231026
5.144,2.3957340128545184
5.148,2.3905306889500935
5.152,2.3976852593186777
5.156,2.4074414916394744
5.16,2.4019129599910229
5.164,2.387929026997881
5.168,2.3853273650456686
5.172,2.4019129599910229
5.176,2.4110187768237665
5.18,2.4123196077998728
5.184,2.4263035407930147
5.188,2.4409378892742097
5.192,2.4438647589704487
5.196,2.4250027098169085
5.2,2.422401047864696
5.204,2.4360597731138114
5.208,2.4406126815301832
5.212,2.4331329034175724
5.216,2.4318320724414662
5.22,2.431181656953413
5.224,2.4386614350660238
5.228,2.4409378892742097
5.232,2.4428891357383691
5.236,2.4529705758031923
5.24,2.4529705758031923
5.244,2.4419135125062894
5.248,2.4337833189056255
5.252,2.4419135125062894
5.256,2.4519949525711127
5.26,2.4513445370830595
5.264,2.4477672518987674
5.268,2.4493932906189002
5.272,2.4493932906189002
5.276,2.4415883047622629
5.28,2.4318320724414662
5.284,2.4331329034175724
5.288,2.4497184983629268
5.292,2.4565478609874845
5.296,2.4620763926359359
5.3,2.4773611566051841
5.304,2.4906946741102729
5.308,2.4968736212467775
5.312,2.5014265296631493
5.316,2.4968736212467775
5.32,2.4932963360624854
5.324,2.4845157269737683
5.328,2.465653677820228
5.332,2.451019329339033
5.336,2.4506941215950064
5.34,2.4500437061069533
5.344,2.4409378892742097
5.348,2.4370353963458911
5.352,2.4363849808578379
5.356,2.4354093576257583
5.36,2.4285799950012006
5.364,2.4240270865848288
5.368,2.4295556182332803
5.372,2.4383362273219973
5.376,2.4305312414653599
5.38,2.4237018788408022
5.384,2.4230514633527491
5.388,2.4204498014005367
5.392,2.4158968929841649
5.396,2.4139456465200055
5.4,2.4266287485370412
5.404,2.4331329034175724
5.408,2.4171977239602711
5.412,2.3856525727896951
5.416,2.3638636539399158
5.42,2.3830509108374827
5.424,2.4445151744585019
5.428,2.5235406562569551
5.432,2.6347617047140375
5.436,2.7563894009799697
5.44,2.8789927204779815
5.444,3.0035472864401527
5.448,3.1137927116651554
5.452,3.1232237362419255
5.456,2.9707013042934705
5.46,2.6477700144750997
5.464,2.3420747350901365
5.468,2.2002841586945578
5.472,2.1983329122303985
5.476,2.235406595049426
5.48,2.2825617179332767
5.484,2.3167085310560651
5.488,2.3378470344177913
5.492,2.3544326293631457
5.496,2.3697173933323938
5.5,2.3856525727896951
5.504,2.3950835973664653
5.508,2.3980104670627043
5.512,2.3947583896224387
5.516,2.3931323509023059
5.52,2.4006121290149167
5.524,2.4038642064551823
5.528,2.404839829687262
5.532,2.41069356907974
5.536,2.4250027098169085
5.54,2.4315068646974396
5.544,2.4204498014005367
5.548,2.4100431535916869
5.552,2.4168725162162445
5.556,2.4184985549363773
5.56,2.4207750091445632
5.564,2.4230514633527491
5.568,2.439311850554077
5.572,2.4523201603151392
5.576,2.445165589946555
5.58,2.4350841498817317
5.584,2.4357345653697848
5.588,2.4467916286666878
5.592,2.4549218222673517
5.596,2.4555722377554048
5.6,2.4523201603151392
5.604,2.4565478609874845
5.608,2.4558974454994313
5.612,2.4614259771478828
5.616,2.4698813784925733
5.62,2.4845157269737683
5.624,2.4955727902706712
5.628,2.5024021528952289
5.632,2.514109631680185
5.636,2.5280935646733269
5.64,2.5362237582739908
5.644,2.5280935646733269
5.648,2.5303700188815128
5.652,2.5388254202262033
5.656,2.5326464730896987
5.66,2.5280935646733269
5.664,2.52874398016138
5.668,2.5306952266255394
5.672,2.52874398016138
5.676,2.517036501376424
5.68,2.5020769451512024
5.684,2.4851661424618214
5.688,2.4757351178850513
5.692,2.45979993842775
5.696,2.4409378892742097
5.7,2.4354093576257583
5.704,2.4409378892742097
5.708,2.4302060337213334
5.712,2.4132952310319524
5.716,2.3924819354142528
5.72,2.3814248721173499
5.724,2.3697173933323938
5.728,2.3537822138750926
5.732,2.3469528512505349
5.736,2.3583351222914644
5.74,2.3576847068034112
5.744,2.3495545132027473
5.748,2.3423999428341631
5.752,2.3420747350901365
5.756,2.3368714111857116
5.76,2.3336193337454461
5.764,2.3391478653938975
5.768,2.3557334603392519
5.772,2.3677661468682345
5.776,2.3661401081481017
5.78,2.3612619919877034
5.784,2.3648392771719955
5.788,2.3674409391242079
5.792,2.3596359532675706
5.796,2.356383875827305
5.8,2.3713434320525266
5.804,2.3872786115098279
5.808,2.3892298579739872
5.812,2.3775223791890312
5.816,2.3719938475405797
5.82,2.3810996643733233
5.824,2.3895550657180138
5.828,2.3905306889500935
5.832,2.3911811044381466
5.836,2.3954088051104918
5.84,2.3918315199261997
5.844,2.3794736256531905
5.848,2.3889046502299607
5.852,2.41069356907974
5.856,2.413620438775979
5.86,2.4025633754790761
5.864,2.3898802734620403
5.868,2.3957340128545184
5.872,2.407766699383501
5.876,2.4123196077998728
5.88,2.4123196077998728
5.884,2.4201245936565101
5.888,2.428254787257174
5.892,2.4184985549363773
5.896,2.3941079741343856
5.9,2.3882542347419076
5.904,2.3983356748067308
5.908,2.4045146219432354
5.912,2.4002869212708902
5.916,2.3918315199261997
5.92,2.3944331818784121
5.924,2.3911811044381466
5.928,2.3863029882777482
5.932,2.3872786115098279
5.936,2.3918315199261997
5.94,2.3947583896224387
5.944,2.3905306889500935
5.948,2.3866281960217748
5.952,2.3856525727896951
5.956,2.3885794424859341
5.96,2.3830509108374827
5.964,2.3863029882777482
5.968,2.407766699383501
5.972,2.4246775020728819
5.976,2.4250027098169085
5.98,2.4259783330489881
5.984,2.4438647589704487
5.988,2.4624016003799625
5.992,2.468580547516467
5.996,2.4637024313560687
6,2.4731334559328388
6.004,2.4890686353901401
6.008,2.4998004909430165
6.012,2.5059794380795211
6.016,2.522890240768902
6.02,2.5336220963217784
6.024,2.5365489660180174
6.028,2.534597719553858
6.032,2.5329716808337253
6.036,2.542727913154522
6.04,2.557362261635717
6.044,2.5677689094445668
6.048,2.5892326205503196
6.052,2.6165500710485503
6.056,2.6422414828266483
6.06,2.6562254158197902
6.064,2.6780143346695695
6.068,2.7189905104169156
6.072,2.7667960487888195
6.076,2.7872841366624925
6.08,2.7879345521505456
6.084,2.7950891225191299
6.088,2.8139511716726702
6.092,2.8227317807613872
6.096,2.8357400905224495
6.1,2.858829840348335
6.104,2.8936270689591765
6.108,2.9228957659215666
6.112,2.9446846847713459
6.116,2.9736281739897095
6.12,3.0028968709520996
6.124,3.0266370362660382
6.128,3.0389949305390473
6.132,3.0542796945082955
6.136,3.0854996379348449
6.14,3.1079389722726773
6.144,3.1092398032487836
6.148,3.1102154264808632
6.152,3.1232237362419255
6.156,3.1368824614910409
6.16,3.1381832924671471
6.164,3.1323295530746691
6.168,3.1238741517299786
6.172,3.1154187503852881
6.176,3.1193212433136068
6.18,3.1651755352213513
6.184,3.2487539254361764
6.188,3.3524951957806479
6.192,3.4575372971012257
6.196,3.5456685957324225
6.2,3.6607921371178236
6.204,3.798355012841057
6.208,3.8793317411036696
6.212,3.8048591677215882
6.216,3.5687583455583081
6.22,3.243875809275778
6.224,3.0097262335766573
6.228,2.9115134948806372
6.232,2.9053345477441326
6.236,2.9547661248361692
6.24,2.9993195857678074
6.244,3.0256614130339585
6.248,3.0432226312113926
6.252,3.0565561487164814
6.256,3.0565561487164814
6.26,3.045824293163605
6.264,3.0432226312113926
6.268,3.0552553177403752
6.272,3.0575317719485611
6.276,3.0451738776755519
6.28,3.0363932685868349
6.284,3.0363932685868349
6.288,3.0402957615151536
6.292,3.0354176453547552
6.296,3.0172060116892681
6.3,3.0087506103445776
6.304,3.0097262335766573
6.308,3.0133035187609494
6.312,2.9993195857678074
6.316,2.9963927160715684
6.32,3.014279141993029
6.324,3.0285882827301975
6.328,3.0243605820578523
6.332,3.0162303884571884
6.336,3.0285882827301975
6.34,3.0474503318837378
6.344,3.0409461770032067
6.348,3.0315151524264365
6.352,3.0354176453547552
6.356,3.0406209692591801
6.36,3.0438730466994457
6.364,3.0393201382830739
6.368,3.0565561487164814
6.372,3.0702148739655968
6.376,3.0692392507335171
6.38,3.0646863423171453
6.384,3.0650115500611719
6.388,3.0737921591498889
6.392,3.0689140429894906
6.396,3.0581821874366142
6.4,3.0689140429894906
6.404,3.0845240147027653
6.408,3.0825727682386059
6.412,3.0721661204297561
6.416,3.0692392507335171
6.42,3.0659871732932515
6.424,3.0607838493888266
6.428,3.0477755396277644
6.432,3.0376940995629411
6.436,3.0259866207779851
6.44,3.0067993638804182
6.444,2.9759046281978954
6.448,2.9391561531228945
6.452,2.9134647413447965
6.456,2.8936270689591765
6.46,2.864683579740813
6.464,2.8454963228432462
6.468,2.8341140518023167
6.472,2.8165528336248826
6.476,2.7941134992870502
6.48,2.7567146087239962
6.484,2.7241938343213405
6.488,2.7066326161439065
6.492,2.6793151656456757
6.496,2.6545993770996574
6.5,2.6454935602669138
6.504,2.6428918983147014
6.508,2.6289079653215595
6.512,2.6155744478164706
6.516,2.6168752787925769
6.52,2.6045173845195677
6.524,2.5622403777961154
6.528,2.5124835929600522
6.532,2.4708570017246529
6.536,2.4497184983629268
6.54,2.4315068646974396
6.544,2.4038642064551823
6.548,2.3654896926600486
6.552,2.3378470344177913
6.556,2.3121556226396933
6.56,2.2913423270219937
6.564,2.2822365101892501
6.568,2.2783340172609314
6.572,2.2832121334213298
6.576,2.2750819398206659
6.58,2.2620736300596036
6.584,2.2578459293872584
6.588,2.2536182287149131
6.592,2.2350813873053994
6.596,2.2132924684556201
6.6,2.1963816657662392
6.604,2.1778448243567254
6.608,2.1586575674591586
6.612,2.1449988422100432
6.616,2.1446736344660167
6.62,2.1449988422100432
6.624,2.1241855465923436
6.628,2.0971933038381394
6.632,2.0760548004764132
6.636,2.0562171280907933
6.64,2.031501339544775
6.644,2.0009318116062786
6.648,1.9719883223879151
6.652,1.9576791816507466
6.656,1.9401179634733126
6.66,1.9101988510228693
6.664,1.8835318160126917
6.668,1.8806049463164527
6.672,1.8828814005246386
6.676,1.8588160274666734
6.68,1.83930356282508
6.684,1.8354010698967613
6.688,1.8227179678797256
6.692,1.8058071651903447
6.696,1.7918232321972027
6.7,1.7823922076204326
6.704,1.77035952109145
6.708,1.7609284965146799
6.712,1.7407656163850334
6.716,1.730033760832157
6.72,1.7186514897912275
6.724,1.7059683877741918
6.728,1.7056431800301652
6.732,1.7118221271666698
6.736,1.7297085530881304
6.74,1.7459689402894583
6.744,1.7576764190744143
6.748,1.7638553662109189
6.752,1.7632049507228658
6.756,1.7706847288354766
6.76,1.7749124295078218
6.764,1.7602780810266268
6.768,1.735887500224635
6.772,1.7293833453441039
6.776,1.7280825143679976
6.78,1.7206027362553868
6.784,1.7137733736308292
6.788,1.7053179722861387
6.792,1.6981634019175544
6.796,1.692634870269103
6.8,1.6893827928288374
6.804,1.6809273914841469
6.808,1.666943458491005
6.812,1.6422276699449867
6.816,1.63247143762419
6.82,1.6327966453682166
6.824,1.6318210221361369
6.828,1.6337722686002962
6.832,1.6389755925047211
6.836,1.6379999692726415
6.84,1.6360487228084821
6.844,1.6253168672556058
6.848,1.6100321032863576
6.852,1.5947473393171094
6.856,1.5775113288837019
6.86,1.5599501107062679
6.864,1.5498686706414446
6.868,1.5745844591874629
6.872,1.6630409655626863
6.876,1.7752376372518484
6.88,1.9271096537122503
6.884,2.0799572934047319
6.888,2.2477644893224351
6.892,2.3993112980388105
6.896,2.4467916286666878
6.9,2.3297168408171274
6.904,2.0526398429065011
6.908,1.7017406871018466
6.912,1.4627129952423275
6.916,1.3765329430752899
6.92,1.3846631366759539
6.924,1.4201107807748485
6.928,1.4614121642662212
6.932,1.5137706110544968
6.936,1.5625517726584803
6.94,1.5953977548051625
6.944,1.6006010787095875
6.948,1.5966985857812688
6.952,1.6080808568221983
6.956,1.6158858426788356
6.96,1.606780025846092
6.964,1.5957229625491891
6.968,1.6012514941976406
6.972,1.6152354271907825
6.976,1.6282437369518448
6.98,1.6350730995764025
6.984,1.6432032931770664
6.988,1.6500326558016241
6.992,1.6500326558016241
6.996,1.6516586945217568
7,1.6763744830677751
7.004,1.710196088446537
7.008,1.7202775285113603
7.012,1.7173506588151213
7.016,1.7193019052792806
7.02,1.7251556446717586
7.024,1.7251556446717586
7.028,1.7245052291837055
7.032,1.7459689402894583
7.036,1.7729611830436625
7.04,1.7879207392688841
7.044,1.7937744786613621
7.048,1.810685281350743
7.052,1.8347506544087082
7.056,1.8558891577704344
7.06,1.8601168584427796
7.064,1.8646697668591514
7.068,1.8822309850365855
7.072,1.9059711503505241
7.076,1.9202802910876926
7.08,1.9254836149921175
7.084,1.9446708718896843
7.088,1.9606060513469856
7.092,1.9573539739067201
7.096,1.939792755729286
7.1,1.9381667170091532
7.104,1.9508498190261889
7.108,1.9563783506746404
7.112,1.9492237803060561
7.116,1.9492237803060561
7.12,1.9492237803060561
7.124,1.9358902628009673
7.128,1.9238575762719847
7.132,1.919955083343666
7.136,1.9128005129750818
7.14,1.8926376328454353
7.144,1.8643445591151249
7.148,1.8474337564257439
7.152,1.8578404042345937
7.156,1.8497102106339298
7.16,1.8243440065998584
7.164,1.8035307109821588
7.168,1.7993030103098135
7.172,1.8097096581186634
7.176,1.8113356968387961
7.18,1.7973517638456542
7.184,1.7999534257978667
7.188,1.8084088271425571
7.192,1.8035307109821588
7.196,1.7934492709173355
7.2,1.7911728167091496
7.204,1.7944248941494152
7.208,1.7866199082927778
7.212,1.7719855598115828
7.216,1.7719855598115828
7.22,1.7921484399412293
7.224,1.8087340348865837
7.228,1.8090592426306102
7.232,1.807758411654504
7.236,1.8175146439753007
7.24,1.8207667214155663
7.244,1.8171894362312742
7.248,1.8272708762960974
7.252,1.8428808480093721
7.256,1.8477589641697705
7.26,1.8464581331936643
7.264,1.8458077177056111
7.268,1.8549135345383547
7.272,1.8675966365553904
7.276,1.8688974675314967
7.28,1.8610924816748593
7.284,1.8711739217396826
7.288,1.8926376328454353
7.292,1.9069467735826038
7.296,1.9131257207191084
7.3,1.9154021749272943
7.304,1.9108492665109225
7.308,1.9036946961423382
7.312,1.9017434496781789
7.316,1.90824760455871
7.32,1.9254836149921175
7.324,1.9355650550569408
7.328,1.9323129776166752
7.332,1.9355650550569408
7.336,1.9472725338418968
7.34,1.954427104210481
7.344,1.9547523119545076
7.348,1.9524758577463217
7.352,1.9599556358589325
7.356,1.9745899843401276
7.36,1.9716631146438885
7.364,1.9664597907394636
7.368,1.9732891533640213
7.372,1.9820697624527384
7.376,1.985972255381057
7.38,1.9898747483093757
7.384,1.9976797341660131
7.388,2.0123140826472081
7.392,2.0006066038622521
7.396,1.9849966321489774
7.4,1.9963789031899069
7.404,2.0097124206949957
7.408,2.0142653291113675
7.412,2.0158913678315002
7.416,2.0236963536881376
7.42,2.0279240543604828
7.424,2.0220703149680048
7.428,2.0129644981352612
7.432,2.0090620052069426
7.436,2.0259728078963235
7.44,2.043208818329731
7.444,2.0497129732102621
7.448,2.0620708674832713
7.452,2.0848354095651302
7.456,2.1049982896947768
7.46,2.1193074304319452
7.464,2.1248359620803967
7.468,2.1355678176332731
7.472,2.1511777893465478
7.476,2.1518282048346009
7.48,2.1401207260496449
7.484,2.1345921944011934
7.488,2.1355678176332731
7.492,2.1306897014728747
7.496,2.1212586768961046
7.5,2.1134536910394672
7.504,2.1147545220155735
7.508,2.1108520290872548
7.512,2.1059739129268564
7.516,2.1128032755514141
7.52,2.123860338848317
7.524,2.1277628317766357
7.528,2.1245107543363702
7.532,2.1339417789131403
7.536,2.1508525816025212
7.54,2.1615844371553976
7.544,2.152478620322654
7.548,2.143698011233937
7.552,2.1537794512987603
7.556,2.1528038280666806
7.56,2.1404459337936714
7.564,2.1358930253772996
7.568,2.137844271841459
7.572,2.1332913634250872
7.576,2.1206082614080515
7.58,2.1189822226879187
7.584,2.1690642152680084
7.588,2.2653257074998692
7.592,2.3941079741343856
7.596,2.5349229272978846
7.6,2.6750874649733305
7.604,2.8380165447306354
7.608,2.9677744345972314
7.612,2.9690752655733377
7.616,2.7970403689832892
7.62,2.47963761081337
7.624,2.1651617223396897
7.628,2.002883058070438
7.632,1.9778420617803931
7.636,2.0067855509987567
7.64,2.0500381809542887
7.644,2.0724775152921211
7.648,2.0932908109098207
7.652,2.120933469152078
7.656,2.146624880930176
7.66,2.1593079829472117
7.664,2.1667877610598225
7.668,2.1762187856365927
7.672,2.1784952398447786
7.676,2.178170032100752
7.68,2.1918287573498674
7.684,2.2139428839436732
7.688,2.2360570105374791
7.692,2.2337805563292932
7.696,2.224349531752523
7.7,2.2285772324248683
7.704,2.2396342957217712
7.708,2.2409351266978774
7.712,2.2376830492576119
7.716,2.2399595034657978
7.72,2.2536182287149131
7.724,2.2614232145715505
7.728,2.2571955138992053
7.732,2.2604475913394708
7.736,2.2776836017728783
7.74,2.2864642108615953
7.744,2.2858137953735422
7.748,2.2848381721414626
7.752,2.2965456509264186
7.756,2.3010985593427904
7.76,2.3050010522711091
7.764,2.3202858162403572
7.768,2.3440259815542959
7.772,2.3615871997317299
7.776,2.3661401081481017
7.78,2.3677661468682345
7.784,2.3758963404688984
7.788,2.3840265340695623
7.792,2.387929026997881
7.796,2.3915063121821731
7.8,2.4093927381036337
7.804,2.4279295795131475
7.808,2.4279295795131475
7.812,2.4158968929841649
7.816,2.4152464774961118
7.82,2.4337833189056255
7.824,2.4337833189056255
7.828,2.4191489704244304
7.832,2.4084171148715541
7.836,2.4116691923118196
7.84,2.4162221007281914
7.844,2.4064658684073947
7.848,2.3876038192538545
7.852,2.3758963404688984
7.856,2.3664653158921283
7.86,2.3524813828989863
7.864,2.3352453724655788
7.868,2.3287412175850477
7.872,2.3251639324007556
7.876,2.3209362317284103
7.88,2.3215866472164635
7.884,2.3290664253290743
7.888,2.3300420485611539
7.892,2.3206110239843838
7.896,2.3098791684315074
7.9,2.3134564536157995
7.904,2.3238631014246494
7.908,2.324838724656729
7.912,2.32191185496049
7.916,2.3193101930082776
7.92,2.3241883091686759
7.924,2.3225622704485431
7.928,2.3176841542881448
7.932,2.3245135169127025
7.936,2.3384974499058444
7.94,2.3459772280184552
7.944,2.3342697492334992
7.948,2.3254891401447821
7.952,2.3394730731379241
7.956,2.3531317983870395
7.96,2.3524813828989863
7.964,2.3479284744826145
7.968,2.3479284744826145
7.972,2.3521561751549598
7.976,2.3550830448511988
7.98,2.3537822138750926
7.984,2.3567090835713316
7.988,2.362237615219783
7.992,2.3667905236361548
7.996,2.3719938475405797
8,2.3898802734620403
8.004,2.41069356907974
8.008,2.4123196077998728
8.012,2.4035389987111557
8.016,2.4074414916394744
8.02,2.4227262556087226
8.024,2.4324824879295193
8.028,2.4328076956735458
8.032,2.4331329034175724
8.036,2.4308564492093865
8.04,2.4204498014005367
8.044,2.4093927381036337
8.048,2.4100431535916869
8.052,2.431181656953413
8.056,2.4461412131786346
8.06,2.4461412131786346
8.064,2.4467916286666878
8.068,2.4565478609874845
8.072,2.4650032623321749
8.076,2.4643528468441218
8.08,2.4584991074516438
8.084,2.4617511848919094
8.088,2.4624016003799625
8.092,2.4516697448270861
8.096,2.4425639279943425
8.1,2.4529705758031923
8.104,2.4760603256290779
8.108,2.4841905192297418
8.112,2.4702065862365998
8.116,2.4679301320284139
8.12,2.4871173889259808
8.124,2.4978492444788571
8.128,2.4939467515505385
8.132,2.5059794380795211
8.136,2.5277683569293004
8.14,2.5264675259531941
8.144,2.5189877478405833
8.148,2.5189877478405833
8.152,2.5358985505299643
8.156,2.5440287441306282
8.16,2.5391506279702298
8.164,2.5411018744343892
8.168,2.5612647545640357
8.172,2.5895578282943461
8.176,2.6110215394000988
8.18,2.6295583808096126
8.184,2.6500464686832856
8.188,2.6620791552122682
8.192,2.6630547784443479
8.196,2.6669572713726666
8.2,2.6711849720450118
8.204,2.6672824791166931
8.208,2.6510220919153653
8.212,2.6256558878812939
8.216,2.6162248633045238
8.22,2.6139484090963379
8.224,2.6064686309837271
8.228,2.5957367754308507
8.232,2.594761152198771
8.236,2.6048425922635943
8.24,2.6100459161680192
8.244,2.5967123986629304
8.248,2.5898830360383727
8.252,2.6048425922635943
8.256,2.6100459161680192
8.26,2.5986636451270897
8.264,2.6002896838472225
8.268,2.6087450851919129
8.272,2.6250054723932408
8.276,2.6298835885536391
8.28,2.6318348350177985
8.284,2.6409406518505421
8.288,2.6376885744102765
8.292,2.6165500710485503
8.296,2.5941107367107179
8.3,2.5950863599427976
8.304,2.6217533949529752
8.308,2.6871201515023131
8.312,2.7661456333007663
8.316,2.8724885655974504
8.32,2.990864184423117
8.324,3.1111910497129429
8.328,3.2328187459788751
8.332,3.3255029530264437
8.336,3.2936325941118412
8.34,3.0900525463512167
8.344,2.7537877390277572
8.348,2.4890686353901401
8.352,2.3905306889500935
8.356,2.3843517418135889
8.36,2.4080919071275275
8.364,2.4402874737861566
8.368,2.468580547516467
8.372,2.4929711283184588
8.376,2.5007761141750962
8.38,2.4981744522228837
8.384,2.5027273606392555
8.388,2.5066298535675742
8.392,2.4968736212467775
8.396,2.4880930121580604
8.4,2.485491350205848
8.404,2.4845157269737683
8.408,2.476710741117131
8.412,2.465653677820228
8.416,2.4633772236120421
8.42,2.4617511848919094
8.424,2.4555722377554048
8.428,2.4474420441547409
8.432,2.4519949525711127
8.436,2.4575234842195641
8.44,2.4513445370830595
8.444,2.4350841498817317
8.448,2.4227262556087226
8.452,2.4227262556087226
8.456,2.4227262556087226
8.46,2.4184985549363773
8.464,2.4155716852401383
8.468,2.4191489704244304
8.472,2.419474178168457
8.476,2.4113439845677931
8.48,2.4025633754790761
8.484,2.4028885832231026
8.488,2.4058154529193416
8.492,2.407766699383501
8.496,2.4142708542640321
8.5,2.4217506323766429
8.504,2.4259783330489881
8.508,2.4250027098169085
8.512,2.4227262556087226
8.516,2.4334581111615989
8.52,2.4467916286666878
8.524,2.4438647589704487
8.528,2.4367101886018645
8.532,2.4295556182332803
8.536,2.4269539562810678
8.54,2.4272791640250944
8.544,2.4230514633527491
8.548,2.4171977239602711
8.552,2.4201245936565101
8.556,2.4145960620080587
8.56,2.3931323509023059
8.564,2.3726442630286328
8.568,2.3645140694279689
8.572,2.3576847068034112
8.576,2.3440259815542959
8.58,2.3319932950253133
8.584,2.3280908020969946
8.588,2.3193101930082776
8.592,2.296220443182392
8.596,2.2724802778684534
8.6,2.2682525771961082
8.604,2.2741063165885862
8.608,2.2763827707967721
8.612,2.2705290314042941
8.616,2.2731306933565065
8.62,2.2789844327489845
8.624,2.2702038236602675
8.628,2.2565450984111521
8.632,2.2591467603633646
8.636,2.2763827707967721
8.64,2.2744315243326128
8.644,2.2695534081722144
8.648,2.2708542391483206
8.652,2.2832121334213298
8.656,2.2806104714691173
8.66,2.2799600559810642
8.664,2.2884154573257547
8.668,2.2997977283666842
8.672,2.3141068691038527
8.676,2.3167085310560651
8.68,2.3163833233120386
8.684,2.3313428795372602
8.688,2.3401234886259772
8.692,2.3414243196020834
8.696,2.3397982808819506
8.7,2.3450016047863755
8.704,2.3515057596669067
8.708,2.3495545132027473
8.712,2.3489040977146942
8.716,2.3635384461958893
8.72,2.379148417909164
8.724,2.3895550657180138
8.728,2.3954088051104918
8.732,2.399636505782837
8.736,2.4090675303596072
8.74,2.4142708542640321
8.744,2.4097179458476603
8.748,2.4149212697520852
8.752,2.4285799950012006
8.756,2.439311850554077
8.76,2.4438647589704487
8.764,2.451019329339033
8.768,2.462726808123989
8.772,2.4672797165403608
8.776,2.47963761081337
8.78,2.4809384417894762
8.784,2.4832148959976621
8.788,2.4919955050863791
8.792,2.4929711283184588
8.796,2.4841905192297418
8.8,2.4776863643492106
8.804,2.4799628185573965
8.808,2.482564480509609
8.812,2.4877678044140339
8.816,2.5053290225914679
8.82,2.5147600471682381
8.824,2.5189877478405833
8.828,2.5245162794890348
8.832,2.5352481350419112
8.836,2.542727913154522
8.84,2.5391506279702298
8.844,2.5293943956494331
8.848,2.5251666949770879
8.852,2.5336220963217784
8.856,2.5417522899224423
8.86,2.5433783286425751
8.864,2.5381750047381502
8.868,2.5378497969941236
8.872,2.5371993815060705
8.876,2.534597719553858
8.88,2.5371993815060705
8.884,2.5492320680350531
8.888,2.5589883003558498
8.892,2.5446791596186813
8.896,2.5365489660180174
8.9,2.5430531208985485
8.904,2.5648420397483278
8.908,2.5719966101169121
8.912,2.5654924552363809
8.916,2.5693949481646996
8.92,2.5791511804854963
8.924,2.591834282502532
8.928,2.5941107367107179
8.932,2.6071190464717802
8.936,2.623379433673108
8.94,2.6334608737379313
8.944,2.6194769407447893
8.948,2.59768802189501
8.952,2.5876065818301868
8.956,2.5781755572534166
8.96,2.5638664165162481
8.964,2.5537849764514249
8.968,2.5567118461476639
8.972,2.5547605996835046
8.976,2.5463051983388141
8.98,2.5329716808337253
8.984,2.5284187724173535
8.988,2.5264675259531941
8.992,2.5271179414412472
8.996,2.5319960576016456
9,2.5401262512023095
9.004,2.5398010434582829
9.008,2.5219146175368223
9.012,2.5040281916153617
9.016,2.508255892287707
9.02,2.5157356704003178
9.024,2.508255892287707
9.028,2.4897190508781932
9.032,2.4679301320284139
9.036,2.4503689138509799
9.04,2.4256531253049616
9.044,2.4080919071275275
9.048,2.4331329034175724
9.052,2.5209389943047427
9.056,2.6302087962976657
9.06,2.7563894009799697
9.064,2.8770414740138222
9.068,3.0266370362660382
9.072,3.1668015739414841
9.076,3.2068021264567506
9.08,3.0920037928153761
9.084,2.8266342736897059
9.088,2.4828896882536355
9.092,2.2571955138992053
9.096,2.1872758489334956
9.1,2.1996337432065047
9.104,2.2422359576739836
9.108,2.2854885876295157
9.112,2.3111799994076136
9.116,2.3384974499058444
9.12,2.3719938475405797
9.124,2.3846769495576154
9.128,2.3872786115098279
9.132,2.3882542347419076
9.136,2.3918315199261997
9.14,2.3876038192538545
9.144,2.3768719637009781
9.148,2.3807744566292968
9.152,2.3983356748067308
9.156,2.4126448155438993
9.16,2.4090675303596072
9.164,2.3866281960217748
9.168,2.385002157301642
9.172,2.3889046502299607
9.176,2.3846769495576154
9.18,2.3817500798613764
9.184,2.3889046502299607
9.188,2.3970348438306246
9.192,2.396709636086598
9.196,2.3915063121821731
9.2,2.3898802734620403
9.204,2.396709636086598
9.208,2.4002869212708902
9.212,2.3983356748067308
9.216,2.3986608825507574
9.22,2.4103683613357134
9.224,2.4191489704244304
9.228,2.4149212697520852
9.232,2.4152464774961118
9.236,2.419474178168457
9.24,2.4158968929841649
9.244,2.4145960620080587
9.248,2.4214254246326163
9.252,2.4376858118339442
9.256,2.4523201603151392
9.26,2.4471168364107143
9.264,2.4464664209226612
9.268,2.4549218222673517
9.272,2.4565478609874845
9.276,2.4474420441547409
9.28,2.4493932906189002
9.284,2.4484176673868205
9.288,2.4360597731138114
9.292,2.4184985549363773
9.296,2.399636505782837
9.3,2.3898802734620403
9.304,2.379148417909164
9.308,2.3719938475405797
9.312,2.3528065906430129
9.316,2.3339445414894726
9.32,2.3323185027693398
9.324,2.3176841542881448
9.328,2.2806104714691173
9.332,2.2584963448753115
9.336,2.2493905280425679
9.34,2.2419107499299571
9.344,2.2188210001040716
9.348,2.1973572889983188
9.352,2.1911783418618143
9.356,2.1801212785649113
9.36,2.1645113068516366
9.364,2.1560559055069461
9.368,2.1677633842919022
9.372,2.1684137997799553
9.376,2.1528038280666806
9.38,2.1417467647697777
9.384,2.1430475957458839
9.388,2.1534542435547337
9.392,2.1453240499540698
9.396,2.1287384550087154
9.4,2.1196326381759718
9.404,2.1069495361589361
9.408,2.0923151876777411
9.412,2.0812581243808381
9.416,2.0845102018211037
9.42,2.0848354095651302
9.424,2.0741035540122539
9.428,2.0672741913876962
9.432,2.0767052159644663
9.436,2.0929656031657942
9.44,2.0978437193261925
9.444,2.0851606173091568
9.448,2.0793068779166788
9.452,2.0786564624286257
9.456,2.0780060469405726
9.46,2.0763800082204398
9.464,2.0841849940770771
9.468,2.0942664341419004
9.472,2.0942664341419004
9.476,2.0767052159644663
9.48,2.0640221139474306
9.484,2.0708514765719883
9.488,2.0734531385242008
9.492,2.0767052159644663
9.496,2.0809329166368116
9.5,2.0932908109098207
9.504,2.1089007826230954
9.508,2.1124780678073876
9.512,2.1043478742067236
9.516,2.106299120670883
9.52,2.1144293142715469
9.524,2.1176813917118125
9.528,2.1202830536640249
9.532,2.1219090923841577
9.536,2.1290636627527419
9.54,2.1287384550087154
9.544,2.1176813917118125
9.548,2.1183318071998656
9.552,2.1293888704967685
9.556,2.1323157401930075
9.56,2.1277628317766357
9.564,2.123860338848317
9.568,2.1251611698244233
9.572,2.1251611698244233
9.576,2.1183318071998656
9.58,2.1115024445753079
9.584,2.1212586768961046
9.588,2.1365434408653527
9.592,2.13491740214522
9.596,2.1261367930565029
9.6,2.1297140782407951
9.604,2.1287384550087154
9.608,2.1186570149438921
9.612,2.1186570149438921
9.616,2.1342669866571669
9.62,2.1404459337936714
9.624,2.1417467647697777
9.628,2.1397955183056183
9.632,2.1469500886742026
9.636,2.1599583984352648
9.64,2.1609340216673445
9.644,2.1498769583704416
9.648,2.1430475957458839
9.652,2.140771141537698
9.656,2.1368686486093793
9.66,2.1342669866571669
9.664,2.1381694795854855
9.668,2.1456492576980963
9.672,2.1397955183056183
9.676,2.1342669866571669
9.68,2.1430475957458839
9.684,2.1706902539881412
9.688,2.1902027186297346
9.692,2.1960564580222126
9.696,2.2028858206467703
9.7,2.2204470388242044
9.704,2.2308536866330542
9.708,2.2298780634009745
9.712,2.2162193381518591
9.716,2.1989833277184516
9.72,2.1892270953976549
9.724,2.1801212785649113
9.728,2.1726415004523005
9.732,2.1729667081963271
9.736,2.1745927469164599
9.74,2.1745927469164599
9.744,2.1768692011246458
9.748,2.1937800038140267
9.752,2.2087395600392483
9.756,2.2051622748549562
9.76,2.1941052115580533
9.764,2.1941052115580533
9.768,2.2032110283907969
9.772,2.2084143522952218
9.776,2.2022354051587172
9.78,2.2006093664385844
9.784,2.2019101974146906
9.788,2.2106908065034077
9.792,2.1983329122303985
9.796,2.1703650462441146
9.8,2.1567063209949993
9.804,2.1482509196503088
9.808,2.1489013351383619
9.812,2.1915035496058408
9.816,2.2838625489093829
9.82,2.41069356907974
9.824,2.5407766666903626
9.828,2.6744370494852774
9.832,2.8415938299149275
9.836,2.9947666773514356
9.84,2.9986691702797543
9.844,2.8172032491129357
9.848,2.4799628185573965
9.852,2.1684137997799553
9.856,2.0223955227120314
9.86,2.0015822270943318
9.864,2.0246719769202173
9.868,2.0773556314525194
9.872,2.1254863775684498
9.876,2.1469500886742026
9.88,2.1622348526434507
9.884,2.1778448243567254
9.888,2.1950808347901329
9.892,2.2028858206467703
9.896,2.2041866516228765
9.9,2.2149185071757529
9.904,2.2279268169368152
9.908,2.2295528556569479
9.912,2.224349531752523
9.916,2.2279268169368152
9.92,2.2305284788890276
9.924,2.2334553485852666
9.928,2.2367074260255322
9.932,2.2497157357865945
9.936,2.2653257074998692
9.94,2.2630492532916833
9.944,2.2584963448753115
9.948,2.2623988378036302
9.952,2.2747567320766393
9.956,2.287439834093675
9.96,2.2971960664144717
9.964,2.3111799994076136
9.968,2.3300420485611539
9.972,2.3342697492334992
9.976,2.3316680872812867
9.98,2.3245135169127025
9.984,2.3401234886259772
9.988,2.3550830448511988
9.992,2.3638636539399158
9.996,2.376221548212925
10,2.3934575586463325
10.004,2.4084171148715541
10.008,2.4155716852401383
10.012,2.4090675303596072
10.016,2.4132952310319524
10.02,2.4276043717691209
10.024,2.4321572801854927
10.028,2.4305312414653599
10.032,2.4324824879295193
10.036,2.4357345653697848
10.04,2.4344337343936786
10.044,2.425327917560935
10.048,2.4285799950012006
10.052,2.4396370582981035
10.056,2.4406126815301832
10.06,2.4305312414653599
10.064,2.4243522943288554
10.068,2.4168725162162445
10.072,2.41069356907974
10.076,2.3963844283425715
10.08,2.3853273650456686
10.084,2.3752459249808453
10.088,2.3589855377795175
10.092,2.3375218266737647
10.096,2.3274403866089415
10.1,2.3193101930082776
10.104,2.3137816613598261
10.108,2.2952448199503124
10.112,2.2770331862848252
10.116,2.2760575630527455
10.12,2.2802852637250908
10.124,2.269878615916241
10.128,2.258821552619338
10.132,2.2542686442029662
10.136,2.2506913590186741
10.14,2.2597971758514177
10.144,2.2604475913394708
10.148,2.2610980068275239
10.152,2.2650004997558426
10.156,2.2614232145715505
10.16,2.258821552619338
10.164,2.2575207216432318
10.168,2.2695534081722144
10.172,2.2744315243326128
10.176,2.2685777849401347
10.18,2.2689029926841613
10.184,2.2812608869571704
10.188,2.2900414960458875
10.192,2.2806104714691173
10.196,2.2799600559810642
10.2,2.2893910805578344
10.204,2.2916675347660203
10.208,2.2809356792131439
10.212,2.2708542391483206
10.216,2.2731306933565065
10.22,2.2900414960458875
10.224,2.2971960664144717
10.228,2.2984968973905779
10.232,2.3027245980629232
10.236,2.3020741825748701
10.24,2.2949196122062858
10.244,2.2809356792131439
10.248,2.2828869256773032
10.252,2.301423767086817
10.256,2.3111799994076136
10.26,2.3056514677591622
10.264,2.304350636783056
10.268,2.3053262600151356
10.272,2.2988221051346045
10.276,2.2871146263496485
10.28,2.2819113024452236
10.284,2.2825617179332767
10.288,2.2861390031175688
10.292,2.2796348482370377
10.296,2.275732355308719
10.3,2.2910171192779671
10.304,2.3033750135509763
10.308,2.3098791684315074
10.312,2.3079279219673481
10.316,2.3085783374554012
10.32,2.3121556226396933
10.324,2.3089035451994278
10.328,2.307277506479295
10.332,2.3040254290390294
10.336,2.3150824923359323
10.34,2.3176841542881448
10.344,2.3147572845919058
10.348,2.3108547916635871
10.352,2.3095539606874809
10.356,2.3069522987352684
10.36,2.3017489748308435
10.364,2.3033750135509763
10.368,2.3193101930082776
10.372,2.3297168408171274
10.376,2.3280908020969946
10.38,2.3310176717932336
10.384,2.3391478653938975
10.388,2.3404486963700037
10.392,2.3293916330731008
10.396,2.318984985264251
10.4,2.3251639324007556
10.404,2.3336193337454461
10.408,2.3319932950253133
10.412,2.3300420485611539
10.416,2.3297168408171274
10.42,2.3339445414894726
10.424,2.3375218266737647
10.428,2.3345949569775257
10.432,2.3264647633768618
10.436,2.3238631014246494
10.44,2.3264647633768618
10.444,2.3349201647215523
10.448,2.3450016047863755
10.452,2.3671157313801814
10.456,2.3830509108374827
10.46,2.3827257030934561
10.464,2.3840265340695623
10.468,2.4019129599910229
10.472,2.4152464774961118
10.476,2.4204498014005367
10.48,2.4139456465200055
10.484,2.41069356907974
10.488,2.4116691923118196
10.492,2.3970348438306246
10.496,2.385002157301642
10.5,2.3784980024211109
10.504,2.373294678516686
10.508,2.3628880307078362
10.512,2.3518309674109332
10.516,2.3495545132027473
10.52,2.3508553441788536
10.524,2.3541074216191191
10.528,2.359310745523544
10.532,2.3599611610115971
10.536,2.3664653158921283
10.54,2.3654896926600486
10.544,2.3560586680832785
10.548,2.3576847068034112
10.552,2.3700426010764204
10.556,2.3680913546122611
10.56,2.3641888616839424
10.564,2.3680913546122611
10.568,2.3843517418135889
10.572,2.3837013263255358
10.576,2.3628880307078362
10.58,2.344676397042349
10.584,2.3797988333972171
10.588,2.4584991074516438
10.592,2.5557362229155842
10.596,2.6737866339972243
10.6,2.7947639147751033
10.604,2.9293999208020978
10.608,3.0507024093240034
10.612,3.1020852328801993
10.616,3.0172060116892681
10.62,2.7742758269014303
10.624,2.4513445370830595
10.628,2.2448376196261961
10.632,2.1989833277184516
10.636,2.2240243240084965
10.64,2.2695534081722144
10.644,2.3098791684315074
10.648,2.3547578371071722
10.652,2.387929026997881
10.656,2.407766699383501
10.66,2.4084171148715541
10.664,2.4071162838954479
10.668,2.4237018788408022
10.672,2.4334581111615989
10.676,2.428254787257174
10.68,2.4318320724414662
10.684,2.4506941215950064
10.688,2.4669545087963343
10.692,2.4643528468441218
10.696,2.4578486919635907
10.7,2.4571982764755376
10.704,2.4669545087963343
10.708,2.4734586636768654
10.712,2.4851661424618214
10.716,2.5066298535675742
10.72,2.5180121246085037
10.724,2.5102071387518663
10.728,2.5030525683832821
10.732,2.5079306845436804
10.736,2.517036501376424
10.74,2.5157356704003178
10.744,2.5056542303354945
10.748,2.5095567232638132
10.752,2.5206137865607161
10.756,2.5271179414412472
10.76,2.5352481350419112
10.764,2.5482564448029734
10.768,2.5635412087722216
10.772,2.569069740420673
10.776,2.5583378848677967
10.78,2.5518337299872655
10.784,2.5583378848677967
10.788,2.5654924552363809
10.792,2.566142870724434
10.796,2.5615899623080622
10.8,2.5693949481646996
10.804,2.5684193249326199
10.808,2.5537849764514249
10.812,2.5391506279702298
10.816,2.5394758357142564
10.82,2.5326464730896987
10.824,2.5212642020487692
10.828,2.5147600471682381
10.832,2.5189877478405833
10.836,2.5271179414412472
10.84,2.5121583852160256
10.844,2.4890686353901401
10.848,2.4692309630045202
10.852,2.4552470300113782
10.856,2.4344337343936786
10.86,2.4113439845677931
10.864,2.3980104670627043
10.868,2.3905306889500935
10.872,2.3736198862607125
10.876,2.3443511892983224
10.88,2.3241883091686759
10.884,2.3193101930082776
10.888,2.3180093620321713
10.892,2.3115052071516402
10.896,2.3069522987352684
10.9,2.3066270909912419
10.904,2.3056514677591622
10.908,2.2952448199503124
10.912,2.2890658728138078
10.916,2.2926431579980999
10.92,2.2984968973905779
10.924,2.2939439889742061
10.928,2.2929683657421265
10.932,2.3046758445270825
10.936,2.3141068691038527
10.94,2.3105295839195605
10.944,2.3046758445270825
10.948,2.3059766755031887
10.952,2.3199606084963307
10.956,2.3193101930082776
10.96,2.3170337388000917
10.964,2.3215866472164635
10.968,2.3319932950253133
10.972,2.3378470344177913
10.976,2.324838724656729
10.98,2.32191185496049
10.984,2.3345949569775257
10.988,2.3492293054587208
10.992,2.3502049286908004
10.996,2.350530136434827
11,2.3550830448511988
11.004,2.3638636539399158
11.008,2.3583351222914644
11.012,2.350530136434827
11.016,2.3628880307078362
11.02,2.3814248721173499
11.024,2.3856525727896951
11.028,2.3784980024211109
11.032,2.3690669778443407
11.036,2.3801240411412437
11.04,2.3801240411412437
11.044,2.3706930165644735
11.048,2.379148417909164
11.052,2.3970348438306246
11.056,2.4058154529193416
11.06,2.4045146219432354
11.064,2.4116691923118196
11.068,2.4217506323766429
11.072,2.4188237626804039
11.076,2.4087423226155806
11.08,2.4103683613357134
11.084,2.4237018788408022
11.088,2.4298808259773068
11.092,2.4243522943288554
11.096,2.4246775020728819
11.1,2.4292304104892537
11.104,2.4354093576257583
11.108,2.4344337343936786
11.112,2.4363849808578379
11.116,2.4445151744585019
11.12,2.4594747306837235
11.124,2.462726808123989
11.128,2.4594747306837235
11.132,2.4575234842195641
11.136,2.4549218222673517
11.14,2.4435395512264222
11.144,2.4396370582981035
11.148,2.4565478609874845
11.152,2.4806132340454496
11.156,2.4880930121580604
11.16,2.482564480509609
11.164,2.4867921811819542
11.168,2.5076054767996538
11.172,2.5245162794890348
11.176,2.5280935646733269
11.18,2.5323212653456721
11.184,2.5443539518746547
11.188,2.5521589377312921
11.192,2.5502076912671328
11.196,2.5537849764514249
11.2,2.5658176629804075
11.204,2.5713461946288589
11.208,2.5687445326766465
11.212,2.566142870724434
11.216,2.569069740420673
11.22,2.5765495185332838
11.224,2.5804520114616025
11.228,2.5876065818301868
11.232,2.6123223703762051
11.236,2.6324852505058516
11.24,2.6432171060587279
11.244,2.6581766622839496
11.248,2.6685833100927994
11.252,2.6718353875330649
11.256,2.6591522855160292
11.26,2.6373633666662499
11.264,2.6220786026970018
11.268,2.6220786026970018
11.272,2.6188265252567362
11.276,2.5983384373830631
11.28,2.5872813740861602
11.284,2.5921594902465586
11.288,2.5902082437823992
11.292,2.5745982720691245
11.296,2.5570370538916904
11.3,2.557362261635717
11.304,2.5638664165162481
11.308,2.551508522243239
11.312,2.5459799905947875
11.316,2.5541101841954514
11.32,2.563216001028195
11.324,2.5554110151715577
11.328,2.5417522899224423
11.332,2.5391506279702298
11.336,2.545654782850761
11.34,2.5498824835231062
11.344,2.5404514589463361
11.348,2.5280935646733269
11.352,2.5108575542399194
11.356,2.4919955050863791
11.36,2.4851661424618214
11.364,2.5450043673627079
11.368,2.6562254158197902
11.372,2.7837068514782004
11.376,2.9105378716485575
11.38,3.0266370362660382
11.384,3.1599722113169264
11.388,3.2741201294702478
11.392,3.269567221053876
11.396,3.1063129335525446
11.4,2.7989916154474486
11.404,2.485491350205848
11.408,2.318984985264251
11.412,2.2799600559810642
11.416,2.3020741825748701
11.42,2.3589855377795175
11.424,2.4028885832231026
11.428,2.428254787257174
11.432,2.4428891357383691
11.436,2.4552470300113782
11.44,2.4581738997076172
11.444,2.4545966145233251
11.448,2.45979993842775
11.452,2.4643528468441218
11.456,2.4650032623321749
11.46,2.45979993842775
11.464,2.4617511848919094
11.468,2.4620763926359359
11.472,2.4617511848919094
11.476,2.4591495229396969
11.48,2.45979993842775
11.484,2.4633772236120421
11.488,2.4591495229396969
11.492,2.4519949525711127
11.496,2.4454907976905815
11.5,2.4571982764755376
11.504,2.4643528468441218
11.508,2.4549218222673517
11.512,2.4497184983629268
11.516,2.4584991074516438
11.52,2.4692309630045202
11.524,2.468580547516467
11.528,2.4669545087963343
11.532,2.4789871953253169
11.536,2.4887434276461136
11.54,2.4802880263014231
11.544,2.476710741117131
11.548,2.4864669734379277
11.552,2.5007761141750962
11.556,2.4968736212467775
11.56,2.4880930121580604
11.564,2.4968736212467775
11.568,2.5059794380795211
11.572,2.5098819310078397
11.576,2.5033777761273086
11.58,2.4988248677109368
11.584,2.5020769451512024
11.588,2.494271959294565
11.592,2.4773611566051841
11.596,2.4682553397724405
11.6,2.4721578327007592
11.604,2.4789871953253169
11.608,2.4679301320284139
11.612,2.4493932906189002
11.616,2.445165589946555
11.62,2.4315068646974396
11.624,2.4097179458476603
11.628,2.3905306889500935
11.632,2.3824004953494295
11.636,2.3693921855883673
11.64,2.34174952734611
11.644,2.3202858162403572
11.648,2.310204376175534
11.652,2.3105295839195605
11.656,2.3040254290390294
11.66,2.2887406650697812
11.664,2.2737811088445596
11.668,2.2640248765237629
11.672,2.2597971758514177
11.676,2.2487401125545148
11.68,2.2484149048104882
11.684,2.2506913590186741
11.688,2.2432115809060633
11.692,2.2217478698003106
11.696,2.2116664297354873
11.7,2.2204470388242044
11.704,2.2279268169368152
11.708,2.2282520246808417
11.712,2.2249999472405761
11.716,2.2256503627286293
11.72,2.2249999472405761
11.724,2.2171949613839388
11.728,2.209715183271328
11.732,2.2168697536399122
11.736,2.2305284788890276
11.74,2.2263007782166824
11.744,2.2171949613839388
11.748,2.2158941304078326
11.752,2.2220730775443371
11.756,2.2142680916876998
11.76,2.2045118593669031
11.764,2.1983329122303985
11.768,2.2032110283907969
11.772,2.2093899755273014
11.776,2.2045118593669031
11.78,2.1996337432065047
11.784,2.2015849896706641
11.788,2.2028858206467703
11.792,2.1863002257014159
11.796,2.1671129688038491
11.8,2.1671129688038491
11.804,2.1817473172850441
11.808,2.178170032100752
11.812,2.1684137997799553
11.816,2.1635356836195569
11.82,2.1537794512987603
11.824,2.1489013351383619
11.828,2.1593079829472117
11.832,2.169389423012035
11.836,2.1791456553328317
11.84,2.1729667081963271
11.844,2.1563811132509727
11.848,2.1355678176332731
11.852,2.120933469152078
11.856,2.1056487051828299
11.86,2.0965428883500863
11.864,2.1007705890224315
11.868,2.1098764058551751
11.872,2.1079251593910158
11.876,2.0965428883500863
11.88,2.0981689270702191
11.884,2.1118276523193344
11.888,2.1202830536640249
11.892,2.1137788987834938
11.896,2.1082503671350423
11.9,2.1124780678073876
11.904,2.1196326381759718
11.908,2.1082503671350423
11.912,2.0965428883500863
11.916,2.1027218354865909
11.92,2.1085755748790689
11.924,2.1040226664626971
11.928,2.1007705890224315
11.932,2.1066243284149095
11.936,2.109225990367122
11.94,2.1053234974388033
11.944,2.0936160186538473
11.948,2.097518511582166
11.952,2.112152860063361
11.956,2.1186570149438921
11.96,2.1196326381759718
11.964,2.1212586768961046
11.968,2.1300392859848216
11.972,2.1258115853124764
11.976,2.1173561839677859
11.98,2.1183318071998656
11.984,2.1251611698244233
11.988,2.1186570149438921
11.992,2.1010957967664581
11.996,2.0877622792613693
12,2.0903639412135817
12.004,2.1036974587186705
12.008,2.1212586768961046
12.012,2.1433728034899104
12.016,2.1719910849642474
12.02,2.1882514721655753
12.024,2.1885766799096018
12.028,2.1885766799096018
12.032,2.1934547960700002
12.036,2.1882514721655753
12.04,2.1719910849642474
12.044,2.1534542435547337
12.048,2.152478620322654
12.052,2.1589827752031852
12.056,2.1508525816025212
12.06,2.1352426098892465
12.064,2.1264620008005295
12.068,2.1375190640974324
12.072,2.1476005041622557
12.076,2.149551750626415
12.08,2.1515029970905744
12.084,2.1570315287390258
12.088,2.1547550745308399
12.092,2.1521534125786275
12.096,2.1635356836195569
12.1,2.1765439933806192
12.104,2.1801212785649113
12.108,2.1784952398447786
12.112,2.1732919159403536
12.116,2.1833733560051769
12.12,2.1908531341177877
12.124,2.1817473172850441
12.128,2.1602836061792914
12.132,2.155405490018893
12.136,2.1641860991076101
12.14,2.2048370671109296
12.144,2.2929683657421265
12.148,2.4220758401206695
12.152,2.566142870724434
12.156,2.6919982676627114
12.16,2.8393173757067416
12.164,2.9794819133821875
12.168,3.0045229096722323
12.172,2.8578542171162553
12.176,2.5358985505299643
12.18,2.2087395600392483
12.184,2.0471113112580497
12.188,2.0184930297837127
12.192,2.0415827796095982
12.196,2.074753969500307
12.2,2.1160553529916797
12.204,2.1518282048346009
12.208,2.1726415004523005
12.212,2.18402377149323
12.216,2.1973572889983188
12.22,2.2054874825989828
12.224,2.2061378980870359
12.228,2.2061378980870359
12.232,2.2116664297354873
12.236,2.2197966233361512
12.24,2.2217478698003106
12.244,2.2217478698003106
12.248,2.2347561795613728
12.252,2.2445124118821695
12.256,2.2425611654180102
12.26,2.232479725353187
12.264,2.2279268169368152
12.268,2.2396342957217712
12.272,2.2467888660903554
12.276,2.2493905280425679
12.28,2.2523173977388069
12.284,2.2549190596910194
12.288,2.2474392815784086
12.292,2.2305284788890276
12.296,2.2292276479129214
12.3,2.2380082570016384
12.304,2.2536182287149131
12.308,2.2594719681073911
12.312,2.2536182287149131
12.316,2.2597971758514177
12.32,2.2646752920118161
12.324,2.2539434364589397
12.328,2.2493905280425679
12.332,2.2484149048104882
12.336,2.2578459293872584
12.34,2.2646752920118161
12.344,2.2597971758514177
12.348,2.2565450984111521
12.352,2.2578459293872584
12.356,2.2578459293872584
12.36,2.2542686442029662
12.364,2.2523173977388069
12.368,2.255894682923099
12.372,2.2497157357865945
12.376,2.2341057640733197
12.38,2.2204470388242044
12.384,2.2142680916876998
12.388,2.20386144387885
12.392,2.1954060425341595
12.396,2.1957312502781861
12.4,2.200934574182611
12.404,2.1885766799096018
12.408,2.1586575674591586
12.412,2.1300392859848216
12.416,2.1173561839677859
12.42,2.1098764058551751
12.424,2.0913395644456614
12.428,2.0770304237084929
12.432,2.0786564624286257
12.436,2.0812581243808381
12.44,2.0783312546845991
12.444,2.0708514765719883
12.448,2.0705262688279618
12.452,2.0679246068757493
12.456,2.054916297114687
12.46,2.0415827796095982
12.464,2.0409323641215451
12.468,2.0467861035140231
12.472,2.0484121422341559
12.476,2.0467861035140231
12.48,2.0510138041863684
12.484,2.0601196210191119
12.488,2.0597944132750854
12.492,2.0451600647938903
12.496,2.0526398429065011
12.5,2.0675993991317227
12.504,2.068900230107829
12.508,2.0662985681556165
12.512,2.0708514765719883
12.516,2.083534578589024
12.52,2.0949168496299535
12.524,2.1030470432306174
12.528,2.112152860063361
12.532,2.1284132472646888
12.536,2.1401207260496449
12.54,2.1332913634250872
12.544,2.1144293142715469
12.548,2.1235351311042905
12.552,2.143698011233937
12.556,2.1505273738584947
12.56,2.1502021661144681
12.564,2.1534542435547337
12.568,2.1576819442270789
12.572,2.1560559055069461
12.576,2.1544298667868134
12.58,2.1641860991076101
12.584,2.1863002257014159
12.588,2.1954060425341595
12.592,2.1908531341177877
12.596,2.1911783418618143
12.6,2.2022354051587172
12.604,2.2061378980870359
12.608,2.2015849896706641
12.612,2.2006093664385844
12.616,2.2119916374795139
12.62,2.2266259859607089
12.624,2.2315041021211073
12.628,2.2266259859607089
12.632,2.2295528556569479
12.636,2.2376830492576119
12.64,2.2438619963941164
12.644,2.2510165667627007
12.648,2.2630492532916833
12.652,2.2776836017728783
12.656,2.2741063165885862
12.66,2.2646752920118161
12.664,2.2679273694520816
12.668,2.2767079785407986
12.672,2.275732355308719
12.676,2.2711794468923472
12.68,2.2731306933565065
12.684,2.2835373411653563
12.688,2.2835373411653563
12.692,2.2828869256773032
12.696,2.2809356792131439
12.7,2.2939439889742061
12.704,2.3017489748308435
12.708,2.2958952354383655
12.712,2.2929683657421265
12.716,2.3030498058069497
12.72,2.3115052071516402
12.724,2.3118304148956668
12.728,2.3193101930082776
12.732,2.3336193337454461
12.736,2.335895787953632
12.74,2.327765594352968
12.744,2.3241883091686759
12.748,2.3206110239843838
12.752,2.3212614394724369
12.756,2.3098791684315074
12.76,2.3023993903188966
12.764,2.3056514677591622
12.768,2.3251639324007556
12.772,2.3466276435065083
12.776,2.3690669778443407
12.78,2.3833761185815092
12.784,2.3882542347419076
12.788,2.3856525727896951
12.792,2.3833761185815092
12.796,2.3921567276702262
12.8,2.4051650374312885
12.804,2.4022381677350495
12.808,2.3856525727896951
12.812,2.3713434320525266
12.816,2.3619124074757565
12.82,2.3524813828989863
12.824,2.3420747350901365
12.828,2.3427251505781896
12.832,2.3459772280184552
12.836,2.3479284744826145
12.84,2.3443511892983224
12.844,2.3459772280184552
12.848,2.3456520202744287
12.852,2.3440259815542959
12.856,2.3375218266737647
12.86,2.3345949569775257
12.864,2.3352453724655788
12.868,2.3378470344177913
12.872,2.3384974499058444
12.876,2.3342697492334992
12.88,2.3355705802096054
12.884,2.3489040977146942
12.888,2.3433755660662428
12.892,2.3215866472164635
12.896,2.307277506479295
12.9,2.3212614394724369
12.904,2.3719938475405797
12.908,2.4464664209226612
12.912,2.548581652547
12.916,2.6760630882054102
12.92,2.7934630837989971
12.924,2.9241965968976729
12.928,3.0471251241397113
12.932,3.0679384197574109
12.936,2.9121639103686903
12.94,2.5986636451270897
12.944,2.296220443182392
12.948,2.1528038280666806
12.952,2.1397955183056183
12.956,2.1628852681315038
12.96,2.1999589509505313
12.964,2.2445124118821695
12.968,2.2747567320766393
12.972,2.287439834093675
12.976,2.2851633798854891
12.98,2.2828869256773032
12.984,2.284512964397436
12.988,2.2867894186056219
12.992,2.2926431579980999
12.996,2.304350636783056
13,2.318984985264251
13.004,2.3170337388000917
13.008,2.3004481438547373
13.012,2.2981716896465514
13.016,2.3128060381277464
13.02,2.3193101930082776
13.024,2.3154077000799589
13.028,2.310204376175534
13.032,2.3079279219673481
13.036,2.3144320768478792
13.04,2.3108547916635871
13.044,2.3095539606874809
13.048,2.3202858162403572
13.052,2.34174952734611
13.056,2.3511805519228801
13.06,2.3371966189297382
13.064,2.3280908020969946
13.068,2.3293916330731008
13.072,2.3342697492334992
13.076,2.3371966189297382
13.08,2.3430503583222162
13.084,2.356383875827305
13.088,2.3612619919877034
13.092,2.3554082525952253
13.096,2.3599611610115971
13.1,2.3771971714450046
13.104,2.3918315199261997
13.108,2.4058154529193416
13.112,2.4191489704244304
13.116,2.4461412131786346
13.12,2.4728082481888123
13.124,2.4903694663662463
13.128,2.5193129555846099
13.132,2.5710209868848324
13.136,2.6367129511781968
13.14,2.6965511760790832
13.144,2.7537877390277572
13.148,2.8116747174644843
13.152,2.8741146043175831
13.156,2.9385057376348414
13.16,2.9999700012558606
13.164,3.0646863423171453
13.168,3.1215976975217927
13.172,3.157370549364714
13.176,3.1814359224226791
13.18,3.215257527801441
13.184,3.2650143126375042
13.188,3.2994863335043192
13.192,3.3307062769308686
13.196,3.3635522590775508
13.2,3.3967234489682596
13.204,3.4256669381866232
13.208,3.4523339731968008
13.212,3.4809522546711378
13.216,3.5238796768826433
13.22,3.5648558526299894
13.224,3.5723356307426002
13.228,3.5762381236709189
13.232,3.5908724721521139
13.236,3.6149378452100791
13.24,3.6406292569881771
13.244,3.6780281475512311
13.248,3.7401428266603034
13.252,3.8051843754656147
13.256,3.8494126286532264
13.26,3.8682746778067667
13.264,3.8754292481753509
13.268,3.8760796636634041
13.272,3.8604696919501293
13.276,3.8416076427965891
13.28,3.8312009949877393
13.284,3.8191683084587567
13.288,3.7960785586328711
13.292,3.7817694178957026
13.296,3.792501273448579
13.3,3.8048591677215882
13.304,3.7977045973530039
13.308,3.7729888088069856
13.312,3.7427444886125159
13.316,3.714776622626232
13.32,3.6845323024317622
13.324,3.6422552957083099
13.328,3.5983522502647247
13.332,3.5625793984218035
13.336,3.5180259374901652
13.34,3.4598137513094116
13.344,3.3915201250638347
13.348,3.3245273297943641
13.352,3.2640386894054245
13.356,3.1889157005352899
13.36,3.0988331554399338
13.364,3.0302143214503303
13.368,2.9580182022764347
13.372,2.8747650198056363
13.376,2.7941134992870502
13.38,2.7280963272496592
13.384,2.6750874649733305
13.388,2.6240298491611611
13.392,2.5752486875571776
13.396,2.5284187724173535
13.4,2.4861417656939011
13.404,2.4357345653697848
13.408,2.3788232101651374
13.412,2.3319932950253133
13.416,2.2981716896465514
13.42,2.258821552619338
13.424,2.2064631058310624
13.428,2.158332359715132
13.432,2.1173561839677859
13.436,2.077680839196546
13.44,2.0305257163126953
13.444,1.9928016180056147
13.448,1.968411037203623
13.452,1.9449960796337109
13.456,1.9079223968146835
13.46,1.8695478830195498
13.464,1.8545883267943282
13.468,1.8484093796578236
13.472,1.8373523163609207
13.476,1.8188154749514069
13.48,1.8100348658626899
13.484,1.7980021793337073
13.488,1.7755628449958749
13.492,1.7488958099856973
13.496,1.7290581376000773
13.5,1.7111717116786167
13.504,1.6861307153885718
13.508,1.6594636803783942
13.512,1.6480814093374647
13.516,1.6487318248255178
13.52,1.6461301628733054
13.524,1.6363739305525087
13.528,1.6288941524398979
13.532,1.6227152053033933
13.536,1.6090564800542779
13.54,1.5853163147403393
13.544,1.5648282268666662
13.548,1.5677550965629052
13.552,1.5820642373000737
13.556,1.5869423534604721
13.56,1.5791373676038347
13.564,1.5684055120509584
13.568,1.5534459558257367
13.572,1.5342586989281699
13.576,1.5212503891671076
13.58,1.5381611918564886
13.584,1.5615761494264007
13.588,1.5732836282113567
13.592,1.575234874675516
13.596,1.586291937972419
13.6,1.5944221315730829
13.604,1.5914952618768439
13.608,1.5927960928529501
13.612,1.5872675612044986
13.616,1.5804381985799409
13.62,1.5716575894912239
13.624,1.5560476177779492
13.628,1.5388116073445417
13.632,1.5277545440476388
13.636,1.5205999736790545
13.64,1.5127949878224172
13.644,1.5225512201432139
13.648,1.5901944309007376
13.652,1.724180021439679
13.656,1.8614176894188859
13.66,1.9833705934288446
13.664,2.1036974587186705
13.668,2.2145932994317263
13.672,2.3063018832472153
13.676,2.3853273650456686
13.68,2.4679301320284139
13.684,2.5550858074275311
13.688,2.6409406518505421
13.692,2.7228930033452343
13.696,2.807447016792139
13.7,2.8871229140786454
13.704,2.9446846847713459
13.708,3.0012708322319668
13.712,3.0731417436618358
13.716,3.1840375843748916
13.72,3.3268037840025499
13.724,3.4806270469271112
13.728,3.6445317499164958
13.732,3.8016070902813226
13.736,3.970715117175132
13.74,4.1147821477788966
13.744,4.1560835312702693
13.748,4.0471389370213728
13.752,3.7772165094793309
13.756,3.4767245539987925
13.76,3.3141206819855142
13.764,3.2998115412483457
13.768,3.3498935338284355
13.772,3.4107073819614016
13.776,3.4562364661251195
13.78,3.4855051630875096
13.784,3.5160746910260059
13.788,3.5333107014594134
13.792,3.5375384021317586
13.796,3.5518475428689271
13.8,3.571034799766494
13.804,3.5742868772067595
13.808,3.5668070990941487
13.812,3.5612785674456973
13.816,3.5495710886607412
13.82,3.5420913105481304
13.824,3.5349367401795462
13.828,3.5307090395072009
13.832,3.5391644408518914
13.836,3.5430669337802101
13.84,3.5329854937153868
13.844,3.5199771839543246
13.848,3.5209528071864042
13.852,3.5329854937153868
13.856,3.5326602859713603
13.86,3.5251805078587495
13.864,3.5144486523058731
13.868,3.4975378496164922
13.872,3.4780253849748988
13.876,3.4572120893571991
13.88,3.4481062725244556
13.884,3.4425777408760041
13.888,3.4224148607463576
13.892,3.4061544735450298
13.896,3.3963982412242331
13.9,3.3941217870160472
13.904,3.3850159701833036
13.908,3.3573733119410463
13.912,3.3378608472994529
13.916,3.338511262787506
13.92,3.3333079388830811
13.924,3.3137954742414877
13.928,3.2929821786237881
13.932,3.2757461681903806
13.936,3.255583288060734
13.94,3.2315179150027689
13.944,3.2028996335284319
13.948,3.1889157005352899
13.952,3.1739561443100683
13.956,3.1547688874125015
13.96,3.1333051763067488
13.964,3.1323295530746691
13.968,3.1362320460029878
13.972,3.1225733207538724
13.976,3.0975323244638275
13.98,3.0868004689109512
13.984,3.0858248456788715
13.988,3.0877760921430308
13.992,3.0760686133580748
13.996,3.065661965549225
14,3.0438730466994457
14.004,3.0041977019282058
14.008,2.9602946564846206
14.012,2.9290747130580712
14.016,2.9186680652492214
14.02,2.9069605864642654
14.024,2.8887489527987782
14.028,2.8591550480923615
14.032,2.8425694531470072
14.036,2.8237074039934669
14.04,2.7937882915430237
14.044,2.7638691790925805
14.048,2.7531373235397041
14.052,2.7430558834748808
14.056,2.7261450807854999
14.06,2.704030954191694
14.064,2.6890713979664724
14.068,2.677689126925543
14.072,2.6581766622839496
14.076,2.6328104582498781
14.08,2.6155744478164706
14.084,2.6106963316560723
14.088,2.5921594902465586
14.092,2.5745982720691245
14.096,2.5680941171885934
14.1,2.5755738953012042
14.104,2.5719966101169121
14.108,2.5534597687073983
14.112,2.5375245892500971
14.116,2.5323212653456721
14.12,2.5238658640009817
14.124,2.5037029838713352
14.128,2.4867921811819542
14.132,2.4828896882536355
14.136,2.4789871953253169
14.14,2.4506941215950064
14.144,2.4269539562810678
14.148,2.4142708542640321
14.152,2.4012625445029698
14.156,2.3856525727896951
14.16,2.3671157313801814
14.164,2.3547578371071722
14.168,2.3394730731379241
14.172,2.3033750135509763
14.176,2.2763827707967721
14.18,2.2614232145715505
14.184,2.2653257074998692
14.188,2.2633744610357098
14.192,2.2415855421859305
14.196,2.2230487007764168
14.2,2.1986581199744251
14.204,2.1739423314284068
14.208,2.140771141537698
14.212,2.1160553529916797
14.216,2.1108520290872548
14.22,2.1027218354865909
14.224,2.083534578589024
14.228,2.0666237758996431
14.232,2.0529650506505277
14.236,2.0194686530157924
14.24,1.9719883223879151
14.244,1.9404431712173391
14.248,1.925158407248091
14.252,1.9075971890706569
14.256,1.879629323084373
14.26,1.8539379113062751
14.264,1.8373523163609207
14.268,1.8191406826954335
14.272,1.7934492709173355
14.276,1.7654814049310517
14.28,1.7567007958423346
14.284,1.7505218487058301
14.288,1.7332858382724226
14.292,1.7150742046069354
14.296,1.7020658948458731
14.3,1.6900332083168905
14.304,1.6750736520916689
14.308,1.6526343177538365
14.312,1.6311706066480838
14.316,1.6194631278631277
14.32,1.6087312723102514
14.324,1.5869423534604721
14.328,1.5703567585151177
14.332,1.5615761494264007
14.336,1.5495434628974181
14.34,1.526128505327506
14.344,1.5056404174538329
14.348,1.5036891709896736
14.352,1.5017379245255142
14.356,1.4971850161091425
14.36,1.4988110548292752
14.364,1.5059656251978595
14.368,1.5192991427029483
14.372,1.5196243504469749
14.376,1.5114941568463109
14.38,1.5053152097098064
14.384,1.5027135477575939
14.388,1.4770221359794959
14.392,1.4445013615768403
14.396,1.4253141046792734
14.4,1.4236880659591407
14.404,1.411004963942105
14.408,1.3840127211879008
14.412,1.3674271262425464
14.416,1.3664515030104667
14.42,1.3674271262425464
14.424,1.3589717248978559
14.428,1.3570204784336966
14.432,1.3661262952664401
14.436,1.3664515030104667
14.44,1.3524675700173248
14.444,1.347914661600953
14.448,1.3570204784336966
14.452,1.3628742178261746
14.456,1.3527927777613513
14.46,1.3423861299525015
14.464,1.3459634151367936
14.468,1.3433617531845812
14.472,1.3183207568945363
14.476,1.2864503979799338
14.48,1.2659623101062607
14.484,1.2714908417547122
14.488,1.3258005350071471
14.492,1.4282409743755125
14.496,1.5719827972352505
14.5,1.7332858382724226
14.504,1.8698730907635763
14.508,2.0084115897188894
14.512,2.1235351311042905
14.516,2.1157301452476531
14.52,1.9375163015211001
14.524,1.6093816877983045
14.528,1.293604968348518
14.532,1.1358792124956381
14.536,1.1092121774854604
14.54,1.1257977724308148
14.544,1.1648227017140016
14.548,1.2165307330142241
14.552,1.2529540003451984
14.556,1.2708404262666591
14.56,1.284824359259801
14.564,1.3082393168297131
14.568,1.3248249117750674
14.572,1.3293778201914392
14.576,1.3358819750719704
14.58,1.3488902848330326
14.584,1.3664515030104667
14.588,1.3693783727067057
14.592,1.362549010082148
14.596,1.3631994255702011
14.6,1.3768581508193165
14.604,1.3901916683244053
14.608,1.3888908373482991
14.612,1.3918177070445381
14.616,1.4077528865018394
14.62,1.4233628582151141
14.624,1.4240132737031672
14.628,1.4279157666314859
14.632,1.4396232454164419
14.636,1.4458021925529465
14.64,1.4445013615768403
14.644,1.4568592558498494
14.648,1.4877539915323723
14.652,1.500437093549408
14.656,1.4952337696449831
14.66,1.4929573154367972
14.664,1.5147462342865765
14.668,1.5336082834401168
14.672,1.5362099453923292
14.676,1.537835984112462
14.68,1.5505190861294977
14.684,1.5700315507710911
14.688,1.5810886140679941
14.692,1.586291937972419
14.696,1.6054791948699858
14.7,1.629544567927951
14.704,1.6474309938494116
14.708,1.6532847332418896
14.712,1.6588132648903411
14.716,1.6685694972111378
14.72,1.6734476133715361
14.724,1.6718215746514034
14.728,1.6646670042828191
14.732,1.6682442894671112
14.736,1.6688947049551643
14.74,1.6643417965387926
14.744,1.6578376416582614
14.748,1.6591384726343676
14.752,1.6513334867777303
14.756,1.6298697756719775
14.76,1.6032027406617999
14.764,1.5937717160850298
14.768,1.5940969238290563
14.772,1.5775113288837019
14.776,1.5680803043069318
14.78,1.5648282268666662
14.784,1.5615761494264007
14.788,1.5482426319213118
14.792,1.5293805827677716
14.796,1.5277545440476388
14.8,1.5469418009452056
14.804,1.5521451248496305
14.808,1.54368972350494
14.812,1.5446653467370197
14.816,1.554746786801843
14.82,1.5586492797301617
14.824,1.5511695016175508
14.828,1.5514947093615774
14.832,1.5645030191226397
14.836,1.5687307197949849
14.84,1.560600526194321
14.844,1.5596249029622413
14.848,1.5742592514434364
14.852,1.5898692231567111
14.856,1.5963733780372422
14.86,1.597999416757375
14.864,1.6090564800542779
14.868,1.626617698231712
14.872,1.641252046712907
14.876,1.6454797473852523
14.88,1.6516586945217568
14.884,1.6630409655626863
14.888,1.6695451204432175
14.892,1.6708459514193237
14.896,1.6825534302042797
14.9,1.6945861167332623
14.904,1.6962121554533951
14.908,1.6929600780131295
14.912,1.7001146483817138
14.916,1.7147489968629088
14.92,1.7225539827195462
14.924,1.7222287749755196
14.928,1.7206027362553868
14.932,1.7332858382724226
14.936,1.7472697712655645
14.94,1.7527983029140159
14.944,1.7609284965146799
14.948,1.7706847288354766
14.952,1.7755628449958749
14.956,1.7739368062757421
14.96,1.7739368062757421
14.964,1.7856442850606982
14.968,1.7947501018934418
14.972,1.7918232321972027
14.976,1.7827174153644592
14.98,1.7879207392688841
14.984,1.8041811264702119
14.988,1.8045063342142384
14.992,1.7918232321972027
14.996,1.7892215702449903
15,1.7898719857330434
15.004,1.7846686618286185
15.008,1.7879207392688841
15.012,1.796050932869548
15.016,1.8084088271425571
15.02,1.8126365278149024
15.024,1.8064575806783978
15.028,1.8067827884224243
15.032,1.8162138129991945
15.036,1.8256448375759646
15.04,1.8191406826954335
15.044,1.8158886052551679
15.048,1.830522953736363
15.052,1.8441816789854784
15.056,1.8445068867295049
15.06,1.8373523163609207
15.064,1.8389783550810535
15.068,1.8467833409376908
15.072,1.8523118725861423
15.076,1.8529622880741954
15.08,1.8656453900912311
15.084,1.8793041153403465
15.088,1.8815805695485324
15.092,1.8793041153403465
15.096,1.8802797385724261
15.1,1.882556192780612
15.104,1.8789789075963199
15.108,1.8776780766202137
15.112,1.8858082702208776
15.116,1.9017434496781789
15.12,1.9101988510228693
15.124,1.9196298755996395
15.128,1.9394675479852594
15.132,1.9635329210432246
15.136,1.9781672695244197
15.14,1.9866226708691102
15.144,2.002883058070438
15.148,2.0272736388724297
15.152,2.0370298711932264
15.156,2.0249971846642438
15.16,2.0162165755755268
15.164,2.020444276247872
15.168,2.0256476001522969
15.172,2.0113384594151285
15.176,1.9996309806301724
15.18,2.0090620052069426
15.184,2.0240215614321642
15.188,2.0253223924082704
15.192,2.008736797462916
15.196,2.0061351355107035
15.2,2.0064603432547301
15.204,2.005809927766677
15.208,2.0051595122786239
15.212,2.011663667159155
15.216,2.0253223924082704
15.22,2.0357290402171202
15.224,2.0253223924082704
15.228,2.0243467691761907
15.232,2.028574469848536
15.236,2.0253223924082704
15.24,2.0074359664868098
15.244,1.9918259947735351
15.248,1.9879235018452164
15.252,2.0019074348383583
15.256,2.0474365190020762
15.26,2.1284132472646888
15.264,2.250040943530621
15.268,2.3775223791890312
15.272,2.497198828990804
15.276,2.6337860814819578
15.28,2.7667960487888195
15.284,2.7765522811096162
15.288,2.5996392683591694
15.292,2.2685777849401347
15.296,1.9814193469646852
15.3,1.8555639500264078
15.304,1.8389783550810535
15.308,1.8659705978352576
15.312,1.899466995469993
15.316,1.9306869388965424
15.32,1.9446708718896843
15.324,1.948573364818003
15.328,1.9501994035381358
15.332,1.9537766887224279
15.336,1.9479229493299499
15.34,1.942719625425525
15.344,1.9492237803060561
15.348,1.9726387378759682
15.352,1.980118515988579
15.356,1.9628825055551715
15.36,1.9472725338418968
15.364,1.9508498190261889
15.368,1.9677606217155699
15.372,1.9706874914118089
15.376,1.9719883223879151
15.38,1.9856470476370305
15.384,2.0077611742308363
15.388,2.0136149136233144
15.392,2.005809927766677
15.396,2.0110132516711019
15.4,2.0162165755755268
15.404,2.0246719769202173
15.408,2.0311761318007484
15.412,2.0393063254014123
15.416,2.0545910893706605
15.42,2.0633716984593775
15.424,2.0620708674832713
15.428,2.0617456597392447
15.432,2.0786564624286257
15.436,2.0958924728620332
15.44,2.1046730819507502
15.444,2.1105268213432282
15.448,2.1189822226879187
15.452,2.118006599455839
15.456,2.1085755748790689
15.46,2.1069495361589361
15.464,2.1176813917118125
15.468,2.1303644937288482
15.472,2.1277628317766357
15.476,2.1212586768961046
15.48,2.1271124162885826
15.484,2.1303644937288482
15.488,2.1215838846401311
15.492,2.0991445503022987
15.496,2.0851606173091568
15.5,2.0698758533399086
15.504,2.0497129732102621
15.508,2.0308509240567219
15.512,2.0230459382000845
15.516,2.0220703149680048
15.52,2.0061351355107035
15.524,1.971337906899862
15.528,1.9391423402412329
15.532,1.9235323685279582
15.536,1.9004426187020727
15.54,1.8640193513710983
15.544,1.8337750311766285
15.548,1.8204415136715397
15.552,1.8061323729343712
15.556,1.7742620140197687
15.56,1.7459689402894583
15.564,1.7352370847365819
15.568,1.7280825143679976
15.572,1.7108465039345901
15.576,1.6906836238049436
15.58,1.6851550921564922
15.584,1.6825534302042797
15.588,1.6594636803783942
15.592,1.6311706066480838
15.596,1.6171866736549418
15.6,1.6132841807266232
15.604,1.6015767019416671
15.608,1.5797877830918878
15.612,1.572308004979277
15.616,1.5697063430270646
15.62,1.5485678396653384
15.624,1.5176731039828155
15.628,1.4991362625733018
15.632,1.4913312767166644
15.636,1.4666154881706461
15.64,1.4334442982799374
15.644,1.4100293407100253
15.648,1.397021030948963
15.652,1.3788093972834758
15.656,1.3482398693449795
15.66,1.3176703414064832
15.664,1.3092149400617927
15.668,1.2988082922529429
15.672,1.2740925037069246
15.676,1.2357179899117909
15.68,1.2067745006934274
15.684,1.1739285185467452
15.688,1.1257977724308148
15.692,1.0763661953387782
15.696,1.0321379421511665
15.7,0.99083655865979381
15.704,0.93912852735957131
15.708,0.87733905599452555
15.712,0.82042770078987814
15.716,0.77424820113810711
15.72,0.72676787051022984
15.724,0.67993795537040569
15.728,0.64546593450359069
15.732,0.61782327626133338
15.736,0.58400167088257149
15.74,0.55050527324783616
15.744,0.52286261500557885
15.748,0.51050472073256969
15.752,0.50204931938787922
15.756,0.48188643925823271
15.76,0.46139835138455965
15.764,0.44773962613544427
15.768,0.4197717601491604
15.772,0.3830232850741595
15.776,0.35277896487968974
15.78,0.33456733121420257
15.784,0.31570528206066228
15.788,0.27895680698566139
15.792,0.24220833191066049
15.796,0.22692356794141233
15.8,0.21846816659672186
15.804,0.20383381811552681
15.808,0.18692301542614587
15.812,0.1813944837776944
15.816,0.1836709379858803
15.82,0.17749199084937572
15.824,0.15960556492791511
15.828,0.1417191390064545
15.832,0.13586539961397648
15.836,0.13716623059008271
15.84,0.13261332217371091
15.844,0.12285708985291421
15.848,0.11180002655601129
15.852,0.099442132283002138
15.856,0.086108614777913317
15.86,0.071149058552691713
15.864,0.064319695928134024
15.868,0.045782854518620297
15.872,0.017164573044283316
15.876,0.0022050168190617114
15.88,0.0022050168190617114
15.884,0.0012293935869820416
15.888,0.0012293935869820416
15.892,0.0018798090750351548
15.896,0.002530224563088268
15.9,0.0018798090750351548
15.904,0.002530224563088268
15.908,0.0022050168190617114
15.912,0.0012293935869820416
15.916,0.0022050168190617114
15.92,0.0022050168190617114
15.924,0.0015546013310085982
15.928,0.0022050168190617114
15.932,0.0015546013310085982
15.936,0.00090418584295548499
15.94,0.0015546013310085982
15.944,0.0018798090750351548
15.948,0.00090418584295548499
15.952,0.0015546013310085982
15.956,0.0015546013310085982
15.96,0.002530224563088268
15.964,0.0015546013310085982
15.968,0.0018798090750351548
15.972,0.0018798090750351548
15.976,0.00090418584295548499
15.98,0.0018798090750351548
15.984,0.0012293935869820416
15.988,0.0015546013310085982
15.992,0.0015546013310085982
15.996,0.0012293935869820416
16,0.0018798090750351548
16.004,0.0018798090750351548
16.008,0.0015546013310085982
16.012,0.0018798090750351548
16.016,0.016188949812203646
16.02,0.14464600870269351
16.024,0.31212799687637016
16.028,0.4887158018827904
16.032,0.66465319140115753
16.036,0.80644376779673621
16.04,0.9362016576633323
16.044,1.0786426495469641
16.048,1.1683999868982937
16.052,1.0975046987005044
16.056,0.85555013714474626
16.06,0.57522106179385446
16.064,0.42985320021398365
16.068,0.41034073557239026
16.072,0.43635735509451479
16.076,0.50920388975646347
16.08,0.61717286077328026
16.084,0.71571080721332692
16.088,0.78237839473877102
16.092,0.82400498597417027
16.096,0.87571301727439277
16.1,0.93099833375890739
16.104,0.96579556236974895
16.108,0.99734071354032494
16.112,1.0370160583115648
16.116,1.0864476354036015
16.12,1.1238465259666555
16.124,1.1553916771372315
16.128,1.1986443070927635
16.132,1.2571817010175437
16.136,1.3092149400617927
16.14,1.3456382073927671
16.144,1.391167291556485
16.148,1.4480786467611324
16.152,1.5059656251978595
16.156,1.5560476177779492
16.16,1.6106825187744107
16.164,1.672797197883483
16.168,1.7254808524157852
16.172,1.7677578591392376
16.176,1.8181650594633538
16.18,1.8688974675314967
16.184,1.9128005129750818
16.188,1.9511750267702155
16.192,2.0015822270943318
16.196,2.0809329166368116
16.2,2.1485761273943353
16.204,2.1986581199744251
16.208,2.244187204138143
16.212,2.3046758445270825
16.216,2.379148417909164
16.22,2.4415883047622629
16.224,2.494271959294565
16.228,2.5580126771237701
16.232,2.6162248633045238
16.236,2.6763882959494367
16.24,2.7733002036693506
16.244,2.8838708366383798
16.248,2.9863112760067452
16.252,3.0601334339007735
16.256,3.122898528497899
16.26,3.1941190244397148
16.264,3.263713481661398
16.268,3.3180231749138329
16.272,3.3570481041970197
16.276,3.3902192940877285
16.28,3.4285938078828622
16.284,3.4672935294220224
16.288,3.5011151348007843
16.292,3.5326602859713603
16.296,3.5716852152545471
16.3,3.6045311974012293
16.304,3.6334746866195928
16.308,3.7082724677457009
16.312,3.8198187239468098
16.316,3.9300641491718125
16.32,4.0103904619463719
16.324,4.0767328417277895
16.328,4.1564087390142959
16.332,4.2393367137410678
16.336,4.3147849103552289
16.34,4.3847045753209386
16.344,4.4582015254709404
16.348,4.5352757608052343
16.352,4.5990164786344394
16.356,4.6390170311497059
16.36,4.6634076119516976
16.364,4.677066337200813
16.368,4.6855217385455035
16.372,4.691700685682008
16.376,4.6959283863543533
16.38,4.6995056715386454
16.384,4.702757748978911
16.388,4.70568461867515
16.392,4.7069854496512562
16.396,4.7092619038594421
16.4,4.7105627348355483
16.404,4.7112131503236014
16.408,4.7134896045317873
16.412,4.7128391890437342
16.416,4.7151156432519201
16.42,4.7151156432519201
16.424,4.7164164742280263
16.428,4.7160912664839998
16.432,4.7177173052041326
16.436,4.7177173052041326
16.44,4.717392097460106
16.444,4.7186929284362122
16.448,4.7183677206921857
16.452,4.7186929284362122
16.456,4.7186929284362122
16.46,4.7186929284362122
16.464,4.7199937594123185
16.468,4.7193433439242654
16.472,4.7183677206921857
16.476,4.7193433439242654
16.48,4.7196685516682919
16.484,4.7186929284362122
16.488,4.7190181361802388
16.492,4.720318967156345
16.496,4.7193433439242654
16.5,4.7199937594123185
16.504,4.7190181361802388
16.508,4.7199937594123185
16.512,4.7199937594123185
16.516,4.7193433439242654
16.52,4.7196685516682919
16.524,4.7199937594123185
16.528,4.7193433439242654
16.532,4.7193433439242654
16.536,4.7193433439242654
16.54,4.720318967156345
16.544,4.7199937594123185
16.548,4.7196685516682919
16.552,4.7199937594123185
16.556,4.7193433439242654
16.56,4.7199937594123185
16.564,4.7199937594123185
16.568,4.7199937594123185
16.572,4.7190181361802388
16.576,4.7199937594123185
16.58,4.7199937594123185
16.584,4.720318967156345
16.588,4.7199937594123185
16.592,4.7196685516682919
16.596,4.720318967156345
16.6,4.7193433439242654
16.604,4.7193433439242654
16.608,4.7196685516682919
16.612,4.7199937594123185
16.616,4.7196685516682919
16.62,4.7199937594123185
16.624,4.720318967156345
16.628,4.7199937594123185
16.632,4.7206441749003716
16.636,4.7193433439242654
16.64,4.7199937594123185
16.644,4.7190181361802388
16.648,4.7206441749003716
16.652,4.7193433439242654
16.656,4.7193433439242654
16.66,4.7199937594123185
16.664,4.7193433439242654
16.668,4.7199937594123185
16.672,4.7190181361802388
16.676,4.7193433439242654
16.68,4.7196685516682919
16.684,4.7199937594123185
16.688,4.7186929284362122
16.692,4.7196685516682919
16.696,4.7180425129481591
16.7,4.7183677206921857
16.704,4.7183677206921857
16.708,4.7180425129481591
16.712,4.7177173052041326
16.716,4.7177173052041326
16.72,4.7180425129481591
16.724,4.7186929284362122
16.728,4.7186929284362122
16.732,4.717392097460106
16.736,4.7180425129481591
16.74,4.7164164742280263
16.744,4.7160912664839998
16.748,4.7164164742280263
16.752,4.7160912664839998
16.756,4.7141400200198404
16.76,4.7147904355078936
16.764,4.7138148122758139
16.768,4.7138148122758139
16.772,4.7147904355078936
16.776,4.7147904355078936
16.78,4.7141400200198404
16.784,4.7164164742280263
16.788,4.7154408509959467
16.792,4.7167416819720529
16.796,4.7167416819720529
16.8,4.7151156432519201
16.804,4.7118635658116546
16.808,4.7082862806273624
16.812,4.7030829567229375
16.816,4.6946275553782471
16.82,4.6803184146410786
16.824,4.6416186931019183
16.828,4.5313732678769156
16.832,4.3977128850820009
16.836,4.2903943295532372
16.84,4.2068159393384121
16.844,4.1466525066934992
16.848,4.1050259154580999
16.852,4.0578707925742492
16.856,4.0035610993218143
16.86,3.9603084693662822
16.864,3.9261616562434938
16.868,3.8881123501923867
16.872,3.8432336815167218
16.876,3.7993306360731367
16.88,3.7590048758138437
16.884,3.7180287000664975
16.888,3.6682719152304344
16.892,3.6178647149063181
16.896,3.5749372926948126
16.9,3.5359123634116258
16.904,3.4874564095516689
16.908,3.42501652269857
16.912,3.3781866075587459
16.916,3.3437145866919309
16.92,3.3089173580810893
16.924,3.2689168055658229
16.928,3.2373716543952469
16.932,3.2025744257844053
16.936,3.1664763661974575
16.94,3.1248497749620583
16.944,3.0965567012317479
16.948,3.071515704941703
16.952,3.0328159834025428
16.956,2.9824087830784265
16.96,2.9554165403242223
16.964,2.9414326073310804
16.968,2.9310259595222306
16.972,2.9043589245120529
16.976,2.8650087874848396
16.98,2.8393173757067416
16.984,2.8149267949047498
16.988,2.767121256532846
16.992,2.7160636407206766
16.996,2.6796403733897023
17,2.6536237538675778
17.004,2.6230542259290814
17.008,2.5807772192056291
17.012,2.5554110151715577
17.016,2.5550858074275311
17.02,2.5417522899224423
17.024,2.5033777761273086
17.028,2.4669545087963343
17.032,2.431181656953413
17.036,2.396709636086598
17.04,2.3547578371071722
17.044,2.3180093620321713
17.048,2.2978464819025248
17.052,2.2581711371312849
17.056,2.2006093664385844
17.06,2.1528038280666806
17.064,2.1261367930565029
17.068,2.0965428883500863
17.072,2.0448348570498638
17.076,1.99702931867796
17.08,1.9693866604357027
17.084,1.9453212873777375
17.088,1.9189794601115864
17.092,1.8971905412618071
17.096,1.8741007914359216
17.1,1.8432060557533987
17.104,1.8093844503746368
17.108,1.7804409611562733
17.112,1.758652042306494
17.116,1.7326354227843694
17.12,1.6978381941735279
17.124,1.6588132648903411
17.128,1.6279185292078182
17.132,1.6110077265184373
17.136,1.589218807668658
17.14,1.5482426319213118
17.144,1.5163722730067093
17.148,1.503363963245647
17.152,1.4884044070204254
17.156,1.4529567629215308
17.16,1.4220620272390079
17.164,1.4045008090615738
17.168,1.3820614747237414
17.172,1.3433617531845812
17.176,1.310515771037899
17.18,1.3007595387171023
17.184,1.3014099542051554
17.188,1.2809218663314823
17.192,1.2493767151609063
17.196,1.2340919511916582
17.2,1.2204332259425428
17.204,1.1927905677002855
17.208,1.1596193778095767
17.212,1.1505135609768331
17.216,1.146936275792541
17.22,1.1264481879188679
17.224,1.0913257515639998
17.228,1.0740897411305923
17.232,1.0607562236255035
17.236,1.0409185512398835
17.24,1.0175035936699715
17.244,0.99603988256421871
17.248,0.98075511859497055
17.252,0.95994182297727093
17.256,0.93294958022306673
17.26,0.9189656472299248
17.264,0.91408753106952645
17.268,0.90433129874872975
17.272,0.88254237989895046
17.276,0.86433074623346329
17.28,0.85977783781709149
17.284,0.84937119000824168
17.288,0.82855789439054206
17.292,0.80806980651686899
17.296,0.79961440517217852
17.3,0.79863878194009885
17.304,0.79213462705956772
17.308,0.78140277150669135
17.312,0.77522382437018678
17.316,0.77587423985823989
17.32,0.7667684230254963
17.324,0.75310969777638093
17.328,0.74302825771155767
17.332,0.73359723313478753
17.336,0.73001994795049541
17.34,0.72384100081399083
17.344,0.72188975434983149
17.348,0.72514183179009706
17.352,0.71473518398124725
17.356,0.69945042001199909
17.36,0.69327147287549451
17.364,0.69814958903589286
17.368,0.70172687422018498
17.372,0.69880000452394597
17.376,0.69847479677991942
17.38,0.71278393751708791
17.384,0.72579224727815017
17.388,0.72676787051022984
17.392,0.71993850788567215
17.396,0.72676787051022984
17.4,0.72871911697438918
17.404,0.71636122270138003
17.408,0.69619834257173352
17.412,0.67766150116221979
17.416,0.6633523604250513
17.42,0.64514072675956413
17.424,0.63050637827836908
17.428,0.62530305437394418
17.432,0.63408366346266121
17.436,0.63050637827836908
17.44,0.62107535370159894
17.444,0.61879889949341305
17.448,0.62530305437394418
17.452,0.62627867760602385
17.456,0.61814848400535993
17.46,0.62042493821354583
17.464,0.63213241699850187
17.468,0.63798615639097989
17.472,0.62953075504628941
17.476,0.61977452272549272
17.48,0.62595346986199729
17.484,0.63733574090292677
17.488,0.63018117053434253
17.492,0.61359557558898814
17.496,0.59635956515558064
17.5,0.57847313923412003
17.504,0.55408255843212828
17.508,0.55310693520004861
17.512,0.61652244528522715
17.516,0.72514183179009706
17.52,0.85717617586487904
17.524,0.97620221017859876
17.528,1.1134398781578057
17.532,1.2636858558980748
17.536,1.3573456861777231
17.54,1.2867756057239603
17.544,1.0529512377688661
17.548,0.70465374391642399
17.552,0.41847092917305417
17.556,0.27635514503344893
17.56,0.24676124032703228
17.564,0.27115182112902403
17.568,0.30920112718013115
17.572,0.32936400730977766
17.576,0.35050251067150384
17.58,0.37619392244960181
17.584,0.38887702446663752
17.588,0.38822660897858441
17.592,0.38139724635402672
17.596,0.38334849281818606
17.6,0.37684433793765493
17.604,0.36546206689672545
17.608,0.36025874299230054
17.612,0.36838893659296446
17.616,0.37586871470557526
17.62,0.36513685915269889
17.624,0.35473021134384908
17.628,0.35440500359982252
17.632,0.35993353524827398
17.636,0.35895791201619431
17.64,0.35277896487968974
17.644,0.35505541908787563
17.648,0.35863270427216776
17.652,0.3485512642073445
17.656,0.33261608475004323
17.66,0.32643713761353865
17.664,0.33814461639849469
17.668,0.34692522548721172
17.672,0.3433479403029196
17.676,0.35180334164761007
17.68,0.37164101403323002
17.684,0.38107203861000016
17.688,0.37619392244960181
17.692,0.37391746824141592
17.696,0.37684433793765493
17.7,0.38627536251442507
17.704,0.38660057025845163
17.708,0.38497453153831884
17.712,0.38627536251442507
17.716,0.38269807733013295
17.72,0.3605839507363271
17.724,0.33716899316641502
17.728,0.3410714860947337
17.732,0.35115292615955696
17.736,0.33554295444628224
17.74,0.29196511674672365
17.744,0.24415957837481983
17.748,0.20383381811552681
17.752,0.15505265651154332
17.756,0.10952357234782539
17.76,0.070173435320612043
17.764,0.042205569334328175
17.768,0.016188949812203646
17.772,0.0022050168190617114
17.776,0.0015546013310085982
17.78,0.0018798090750351548
17.784,0.0012293935869820416
17.788,0.0015546013310085982
17.792,0.0018798090750351548
17.796,0.0015546013310085982
17.8,0.0018798090750351548
17.804,0.0012293935869820416
17.808,0.0018798090750351548
17.812,0.0015546013310085982
17.816,0.0018798090750351548
17.82,0.00090418584295548499
17.824,0.0015546013310085982
17.828,0.0015546013310085982
17.832,0.0015546013310085982
17.836,0.00090418584295548499
17.84,0.0018798090750351548
17.844,0.0018798090750351548
17.848,0.0012293935869820416
17.852,0.0022050168190617114
17.856,0.0015546013310085982
17.86,0.0015546013310085982
17.864,0.0018798090750351548
17.868,0.0012293935869820416
17.872,0.0018798090750351548
17.876,0.0012293935869820416
17.88,0.0015546013310085982
17.884,0.0012293935869820416
17.888,0.0015546013310085982
17.892,0.0012293935869820416
17.896,0.0012293935869820416
17.9,0.00090418584295548499
17.904,0.0022050168190617114
17.908,0.0012293935869820416
17.912,0.0012293935869820416
17.916,0.0015546013310085982
17.92,0.00057897809892892838
17.924,0.0012293935869820416
17.928,0.0012293935869820416
17.932,0.00090418584295548499
17.936,0.002530224563088268
17.94,0.00090418584295548499
17.944,0.0022050168190617114
17.948,0.0015546013310085982
17.952,0.0018798090750351548
17.956,0.0018798090750351548
17.96,0.0015546013310085982
17.964,0.0012293935869820416
17.968,0.0018798090750351548
17.972,0.0022050168190617114
17.976,0.0015546013310085982
17.98,0.0015546013310085982
17.984,0.0012293935869820416
17.988,0.0018798090750351548
17.992,0.0018798090750351548
17.996,0.0018798090750351548
18,0.0012293935869820416
18.004,0.0015546013310085982
18.008,0.0015546013310085982
18.012,0.0015546013310085982
18.016,0.0018798090750351548
18.02,0.0015546013310085982
18.024,0.0015546013310085982
18.028,0.0018798090750351548
18.032,0.0015546013310085982
18.036,0.0018798090750351548
18.04,0.0015546013310085982
18.044,0.0018798090750351548
18.048,0.0018798090750351548
18.052,0.0022050168190617114
18.056,0.0015546013310085982
18.06,0.0022050168190617114
18.064,0.0012293935869820416
18.068,0.0022050168190617114
18.072,0.0012293935869820416
18.076,0.0015546013310085982
18.08,0.0018798090750351548
18.084,0.034075375733664259
18.088,0.073750720504904166
18.092,0.10822274137171917
18.096,0.14204434675048105
18.1,0.15928035718388855
18.104,0.16220722688012756
18.108,0.16806096627260558
18.112,0.18204489926574752
18.116,0.20676068781176582
18.12,0.22724877568543889
18.124,0.23472855379804969
18.128,0.24448478611884639
18.132,0.25521664167172275
18.136,0.25359060295158997
18.14,0.24188312416663393
18.144,0.23667980026220903
18.148,0.2256227369653061
18.152,0.19830528646707535
18.156,0.1641584733442869
18.16,0.15212578681530431
18.164,0.15472744876751676
18.168,0.14204434675048105
18.172,0.10627149490755983
18.176,0.077328005689196289
18.18,0.066921357880346477
18.184,0.058465956535656005
18.188,0.045457646774593741
18.192,0.039603907382115722
18.196,0.042855984822381288
18.2,0.031473713781451806
18.204,0.0054570942593272775
18.208,0.0018798090750351548
18.212,0.0015546013310085982
18.216,0.0022050168190617114
18.22,0.0018798090750351548
18.224,0.0022050168190617114
18.228,0.0015546013310085982
18.232,0.0022050168190617114
18.236,0.0015546013310085982
18.24,0.0015546013310085982
18.244,0.002530224563088268
18.248,0.0015546013310085982
18.252,0.002530224563088268
18.256,0.0015546013310085982
18.26,0.0012293935869820416
18.264,0.0015546013310085982
18.268,0.0015546013310085982
18.272,0.00090418584295548499
18.276,0.002530224563088268
18.28,0.084807783801807091
18.284,0.051636593911098316
18.288,0.0018798090750351548
18.292,0.0022050168190617114
18.296,0.00090418584295548499
18.3,0.0015546013310085982
18.304,0.0015546013310085982
18.308,0.0018798090750351548
18.312,0.0018798090750351548
18.316,0.0015546013310085982
18.32,0.0022050168190617114
18.324,0.0012293935869820416
18.328,0.0012293935869820416
18.332,0.00090418584295548499
18.336,0.0015546013310085982
18.34,0.0015546013310085982
18.344,0.00090418584295548499
18.348,0.0015546013310085982
18.352,0.00057897809892892838
18.356,0.0015546013310085982
18.36,0.00090418584295548499
18.364,0.0015546013310085982
18.368,0.00090418584295548499
18.372,0.00057897809892892838
18.376,0.0018798090750351548
18.38,0.00090418584295548499
18.384,0.0015546013310085982
18.388,0.0012293935869820416
18.392,0.0015546013310085982
18.396,0.0015546013310085982
18.4,0.0012293935869820416
18.404,0.0012293935869820416
18.408,0.0015546013310085982
18.412,0.0018798090750351548
18.416,0.0015546013310085982
18.42,0.0018798090750351548
18.424,0.0015546013310085982
18.428,0.00090418584295548499
18.432,0.0015546013310085982
18.436,0.0018798090750351548
18.44,0.0018798090750351548
18.444,0.0012293935869820416
18.448,0.0015546013310085982
18.452,0.0018798090750351548
18.456,0.00090418584295548499
18.46,0.0015546013310085982
18.464,0.0012293935869820416
18.468,0.0022050168190617114
18.472,0.0018798090750351548
18.476,0.0012293935869820416
18.48,0.00090418584295548499
18.484,0.0015546013310085982
18.488,0.0015546013310085982
18.492,0.0012293935869820416
18.496,0.0012293935869820416
18.5,0.00057897809892892838
18.504,0.0018798090750351548
18.508,0.0012293935869820416
18.512,0.0012293935869820416
18.516,0.0018798090750351548
18.52,0.0015546013310085982
18.524,0.0015546013310085982
18.528,0.0018798090750351548
18.532,0.0012293935869820416
18.536,0.00057897809892892838
18.54,0.0015546013310085982
18.544,0.0015546013310085982
18.548,0.0012293935869820416
18.552,0.00057897809892892838
18.556,0.0012293935869820416
18.56,0.0022050168190617114
18.564,0.0012293935869820416
18.568,0.0012293935869820416
18.572,0.0012293935869820416
18.576,0.0012293935869820416
18.58,0.0022050168190617114
18.584,0.0015546013310085982
18.588,0.0012293935869820416
18.592,0.0012293935869820416
18.596,0.0012293935869820416
18.6,0.0012293935869820416
18.604,0.0015546013310085982
18.608,0.0012293935869820416
18.612,0.0012293935869820416
18.616,0.0012293935869820416
18.62,0.0015546013310085982
18.624,0.0015546013310085982
18.628,0.0012293935869820416
18.632,0.0012293935869820416
18.636,0.0015546013310085982
18.64,0.0012293935869820416
18.644,0.0012293935869820416
18.648,0.0018798090750351548
18.652,0.0015546013310085982
18.656,0.0012293935869820416
18.66,0.0012293935869820416
18.664,0.0012293935869820416
18.668,0.0012293935869820416
18.672,0.0012293935869820416
18.676,0.00090418584295548499
18.68,0.0015546013310085982
18.684,0.0012293935869820416
18.688,0.0018798090750351548
18.692,0.00090418584295548499
18.696,0.0018798090750351548
18.7,0.0015546013310085982
18.704,0.00057897809892892838
18.708,0.00090418584295548499
18.712,0.0015546013310085982
18.716,0.0015546013310085982
18.72,0.00090418584295548499
18.724,0.00057897809892892838
18.728,0.0015546013310085982
18.732,0.0012293935869820416
18.736,0.00090418584295548499
18.74,0.0018798090750351548
18.744,0.0018798090750351548
18.748,0.0012293935869820416
18.752,0.0015546013310085982
18.756,0.0015546013310085982
18.76,0.0012293935869820416
18.764,0.0015546013310085982
18.768,0.0015546013310085982
18.772,0.0018798090750351548
18.776,0.0015546013310085982
18.78,0.0012293935869820416
18.784,0.0012293935869820416
18.788,0.0012293935869820416
18.792,0.0018798090750351548
18.796,0.0015546013310085982
18.8,0.0012293935869820416
18.804,0.0018798090750351548
18.808,0.0018798090750351548
18.812,0.0015546013310085982
18.816,0.0012293935869820416
18.82,0.0012293935869820416
18.824,0.0015546013310085982
18.828,0.00090418584295548499
18.832,0.0012293935869820416
18.836,0.0018798090750351548
18.84,0.002530224563088268
18.844,0.15797952620778233
18.848,0.45554461199208163
18.852,0.68221440957859159
18.856,0.83603767250315286
18.86,0.96547035462572239
18.864,1.0864476354036015
18.868,1.1905141134920996
18.872,1.2835235282836948
18.876,1.3872647986281663
18.88,1.4903556534845848
