-0.018586073614897
-0.0203084880887525
-0.0220262125423966
-0.0237348807225438
-0.0254240308612933
-0.0270629999114694
-0.02858193233829
-0.029856259839258
-0.0307040645564304
-0.0309026494687604
-0.0302243662435687
-0.0284848236369097
-0.025592291543872
-0.0215876013343376
-0.0166684184243281
-0.0111969390753221
-0.00569196261908831
-0.000803541810212052
0.00273667924129058
0.00419895578547121
0.00297775308049663
-0.00125547586308852
-0.00839649195898852
-0.017794613485927
-0.0282343906677371
-0.0380578590708761
-0.0454464182877265
-0.0488394412245224
-0.0474168464391045
-0.0415279565889471
-0.0329248230906981
-0.0246689975091955
-0.0206336650590963
-0.0246144405741952
-0.0391763456541138
-0.0644758169166317
-0.0973734570322779
-0.131164475536121
-0.15617673410122
-0.161316214828487
-0.136398253510141
-0.0748418996793787
0.0239001980251453
0.152873203100045
0.297687613627546
0.438380235516294
0.552873206279737
0.621364101099728
0.63063367635665
0.577165576221197
0.46820198727011
0.320378003760688
0.15624135305814
-0.000444132882988821
-0.129399113604353
-0.217387651757985
-0.259889963936569
-0.260717432810467
-0.229942263159301
-0.180872599483992
-0.12690901852847
-0.0789918461981646
-0.0440729949316741
-0.0247243725706332
-0.0197177038542164
-0.0252343956280302
-0.0363061630761373
-0.0481319175673117
-0.0570281131233067
-0.0609063519921947
-0.0592970148645885
-0.0530271242323306
-0.0437052116725874
-0.0331683036794232
-0.0230164789637494
-0.0143123395190774
-0.00746998007160233
-0.00231243450191136
0.00175388507220042
0.00551162800140616
0.0097121011908123
0.0149079817349206
0.0213656361215634
0.0290629469589696
0.0377595596016034
0.0471117026607124
0.0567960591859208
0.0666084728153707
0.0765131261242351
0.0866332558142417
0.0971910298080237
0.10841737831304
0.120458921017527
0.133307345350716
0.146767964343979
0.160472105220255
0.173926433065228
0.186584284616229
0.197920761599225
0.207494349600647
0.214982230056262
0.220183475871859
0.222993206825809
0.223359817208929
0.221243507823388
0.216594307175392
0.209360259332395
0.199523590912241
0.187149564087415
0.172425397290304
0.155669067256829
0.137299571917135
0.117776336479484
0.0975287909685371
0.0769021234466877
0.0561400146088415
0.0354118911527762
0.0148756206189496
-0.00524763181214888
-0.0246162937930479
-0.042755131373572
-0.059098395712613
-0.0730828474794394
-0.0842661230913574
-0.0924355610428137
-0.0976739139414559
-0.100360796194267
-0.101107451729488
-0.100640911740146
-0.0996665129127646
-0.0987423459653807
-0.0981950665885125
-0.0980948291242654
-0.0982907342029267
-0.0984916279842086
-0.0983656057856372
-0.097629164297454
-0.0961043517941081
-0.0937362135088884
-0.0905773482009173
-0.0867556660393203
-0.082442529523843
-0.0778322998043642
-0.0731347292762872
-0.0685733806640277
-0.0643799659193465
-0.0607772976575973
-0.0579506127003654
-0.0560146147003495
-0.0549879488969395
-0.0547859402968984
-0.0552366567307846
-0.0561171250788634
-0.0571993466539048
-0.058292740712221
-0.0592719120048591
-0.0600846513165768
-0.0607417005312731
-0.0612943999547183
-0.0618080862756904
-0.0623387104510741
-0.0629184659264144
-0.0635535255878835
-0.0642332438330658
-0.0649459100575614
-0.0656929277116895
-0.0664932292062199
-0.0673738494768311
-0.0683494587312761
-0.0693997862074371
-0.0704558233513994
-0.0714024214999328
-0.0720982523763893
-0.0724074610947519
-0.0722335671301256
-0.0715461937139316
-0.0703939707399197
-0.0689005621101716
-0.0672439503193646
-0.0656218334587683
-0.0642088087070422
-0.0631140116734493
-0.0623501572451736
-0.0618249196270338
-0.061361838757151
-0.060750083046244
-0.0598120946892153
-0.0584692233989508
-0.0567825024283952
-0.0549514684318808
-0.0532672084958338
-0.0520317543203085
-0.0514682706863849
-0.0516504325517331
-0.0524735669590628
-0.0536768449095444
-0.0549098367864516
-0.0558233951606653
-0.0561581064044538
-0.0558052034328949
-0.0548241121989846
-0.0534146436276279
-0.0518555441275271
-0.0504299186009612
-0.0493591212449688
-0.0487604962916576
-0.0486342074410781
-0.0488748685134636
-0.0492982864573011
-0.0496733195773463
-0.049752084811811
-0.0492958297626528
-0.0480965640977749
-0.045995260375463
-0.0428966451752685
-0.038779712204798
-0.0337036059128401
-0.027810855080893
-0.0213324046839536
-0.0145983566294446
-0.00805260578957271
-0.00225988517962591
0.00211487497730479
0.0043759655565544
0.0039250993955942
0.000435967358065273
-0.00596422930914337
-0.0145663963178642
-0.0240687792709162
-0.0327308320138014
-0.0387009945765132
-0.0404773196998803
-0.0374087345464682
-0.0301061928695964
-0.0206199110875924
-0.0122611641062785
-0.00900890700096067
-0.0145382677740176
-0.0310241196607307
-0.0579817289255215
-0.0914740485692377
-0.124009048260238
-0.145350028416767
-0.144268986976906
-0.111018819906684
-0.0400445046908746
0.0677252510862024
0.20369151617054
0.352021719955805
0.491875621248507
0.601123888687469
0.660809763111414
0.659303316770506
0.595068114402999
0.477252413952254
0.323876647406346
0.158052420435792
0.00321360761912638
-0.121421975765111
-0.204082395458065
-0.241729299669096
-0.239342291889395
-0.207646564492369
-0.160037499329977
-0.109515853992081
-0.0662947105774769
-0.0364589353993027
-0.0217467906673291
-0.0202628465935617
-0.0277706023540015
-0.0391658423075536
-0.0497819376673601
-0.056292130566887
-0.0571116787750125
-0.0523297231789277
-0.043293116957168
-0.0320112768861282
-0.0205525339479849
-0.0105669259854707
-0.00301211440434733
0.00190463583441621
0.00460832255226083
0.00593268356474009
0.00686793566610156
0.00834213412699541
0.011073289279827
0.0155027124193607
0.0217988109651623
0.0299081957853661
0.0396280819095389
0.0506787203514109
0.0627632223359613
0.0756102081417879
0.0889992573086369
0.102770094334671
0.116816081622572
0.131063292290224
0.14543885755171
0.159835313067227
0.174079658539783
0.187915671678588
0.201005349103772
0.212950632610991
0.223331123163934
0.231749165747861
0.23787205712774
0.241462520496993
0.242392075957461
0.240636109993347
0.236253288378919
0.229355046898186
0.220073031048343
0.208533161679474
0.194843979169718
0.179103779801852
0.161425985913415
0.14197605275559
0.121007869014287
0.0988857097206346
0.076081355963195
0.0531443566620891
0.0306528081487215
0.00915780930738413
-0.0108653839475105
-0.0290511534806616
-0.0451597035506568
-0.059077243769978
-0.0708036699221766
-0.0804317648692601
-0.0881220898612742
-0.0940775740132888
-0.0985207801829421
-0.101674962700845
-0.103748536460597
-0.104922783701228
-0.105344372277553
-0.105125607706754
-0.104354187765144
-0.103110308231276
-0.101484432902113
-0.0995871548137942
-0.0975454326481689
-0.0954862288690793
-0.0935154721179095
-0.0917029550850194
-0.0900803078051389
-0.0886515647485551
-0.0874088226264933
-0.0863433898230339
-0.0854467221623371
-0.0847025505505907
-0.084077286763815
-0.0835166408721291
-0.0829523943654637
-0.0823175241146177
-0.0815640184963245
-0.0806774073212309
-0.0796842681163278
-0.0786516660801424
-0.0776792015562946
-0.0768849768140207
-0.0763871114855636
-0.0762831914298703
-0.0766312711385703
-0.0774369104422596
-0.0786500821701063
-0.0801732634375873
-0.0818784981798175
-0.0836283007736571
-0.0852942755156197
-0.0867686614644616
-0.0879672117938064
-0.0888257534181138
-0.0892957972656327
-0.0893449835281424
-0.0889651952300131
-0.0881859164791064
-0.0870855670120929
-0.085792098658094
-0.0844674559198394
-0.0832772280655052
-0.0823535753938279
-0.081763031978335
-0.0814897772067235
-0.0814402592362747
-0.0814685079175691
-0.0814151406705312
-0.08114893885479
-0.0805994083331669
-0.0797719516433359
-0.0787426000892787
-0.0776346891608173
-0.0765842205771024
-0.0757034591225014
-0.0750529107340918
-0.0746293592143609
-0.0743721493224529
-0.0741832042189645
-0.0739513107895214
-0.0735703789685232
-0.0729450410652491
-0.0719833122195442
-0.070582289450482
-0.0686166555816668
-0.0659398288870331
-0.0624038163027658
-0.0578971594040708
-0.0523930654945924
-0.0459949398684105
-0.0389663275034137
-0.0317365173159422
-0.0248789797578404
-0.0190639471888503
-0.0149872129837054
-0.0132761471950302
-0.014374753284408
-0.01841582095351
-0.0251005086582245
-0.0336204391731065
-0.0426673764963626
-0.0505723242715391
-0.0555935049529841
-0.0563314618770115
-0.0521980301977062
-0.043819667980296
-0.0332325237482512
-0.0237407870821403
-0.0193666776703037
-0.0239142171954076
-0.0397834202585029
-0.0667816910877182
-0.101254317605859
-0.135864988810976
-0.160277030498951
-0.162811107948829
-0.132906784747709
-0.0639456439949969
0.0442202205456161
0.183765201221786
0.339018236433671
0.488493903717154
0.608617133687304
0.678426262923982
0.684165105140985
0.62257526649684
0.501950992073249
0.340584795768125
0.162953608998297
-0.00536752547108003
-0.142748547116351
-0.235275747926315
-0.278469329765163
-0.276787717047908
-0.241340074520415
-0.186602925208873
-0.127038335947535
-0.0743681896105337
-0.0359611979964586
-0.0144456574148977
-0.00836559740330771
-0.0135097780110979
-0.0244805328153244
-0.0361174654710216
-0.0445127176105918
-0.0475052168029944
-0.0446802861076867
-0.0370001046208567
-0.0262377340494312
-0.0143854197048793
-0.00316938743520199
0.00625404743622677
0.0134050260239738
0.018419886453787
0.0218817247222801
0.0246062600891758
0.027438380975668
0.0310965766819955
0.0360823149279381
0.0426545057732941
0.0508577518009619
0.0605867720357649
0.0716666246017464
0.083927873397841
0.0972576648324192
0.111612999589594
0.126992263508766
0.143374076496959
0.160644555437658
0.178539791839631
0.196626348450195
0.214329794979392
0.231004678781932
0.246025412547588
0.258871443143193
0.269183242863914
0.276775885402824
0.281609942661857
0.28373107627674
0.283197348979418
0.280015681343663
0.274105755456648
0.26530178018008
0.253391931044195
0.23818503481766
0.219587272964566
0.19767018432682
0.17271491687164
0.145224533248481
0.115903453081221
0.0856086915201999
0.0552807824722652
0.0258636836073875
-0.00177669572739717
-0.0269260259032875
-0.0490786923778565
-0.0679713860021613
-0.0835878063624408
-0.0961319455525897
-0.105971993150416
-0.113563315126977
-0.119365585500786
-0.123772813291765
-0.127072714447011
-0.129443095242698
-0.130980624159004
-0.131746837627761
-0.131812057900675
-0.131281452393231
-0.130296444077105
-0.129014897213862
-0.127581001917993
-0.126098160954737
-0.124615132195964
-0.123129015427609
-0.121601541402193
-0.119980500824469
-0.118217588494168
-0.116277218135562
-0.114136317614568
-0.11178016619664
-0.10920143819153
-0.106407578978199
-0.103436478129317
-0.100374804599877
-0.0973700519685648
-0.0946276857103891
-0.0923885439515753
-0.0908874682140236
-0.0903002576959733
-0.0906908210733119
-0.09197268335503
-0.0938980546512639
-0.0960830350723464
-0.0980693667133973
-0.0994128566301047
-0.0997790198576245
-0.0990211041892782
-0.0972172494174875
-0.0946529558036292
-0.0917503335778689
-0.0889620334196705
-0.086659313217391
-0.0850457903563544
-0.0841201522014317
-0.0836956327160127
-0.083467108907007
-0.0831038967151574
-0.08234119342416
-0.0810460309774631
-0.0792425529394905
-0.0770932900634078
-0.0748447179343348
-0.0727540029343646
-0.0710175440126778
-0.0697200481561054
-0.0688163247222803
-0.0681488264825843
-0.0674947595587187
-0.0666296777987581
-0.0653913819258627
-0.0637288315371941
-0.0617245953149572
-0.0595847825557315
-0.0575967199125816
-0.0560615770935742
-0.0552157842809794
-0.0551594542248526
-0.0558100639250152
-0.0568946227725095
-0.0579845901634872
-0.0585673987926153
-0.0581394896488761
-0.0563006871878887
-0.0528298200960812
-0.0477266393380266
-0.0412140099297803
-0.0337047448119449
-0.0257461202962495
-0.0179587066293843
-0.0109827461267264
-0.00543603192715932
-0.00187636822661017
-0.000754904614770021
-0.00234827652104048
-0.0066683706774682
-0.0133653989788831
-0.0216567148685415
-0.0303237724698666
-0.0378174607940402
-0.0424947585630327
-0.0429774144935665
-0.0385805654103518
-0.0297153183963891
-0.018138078051807
-0.00691567151310192
-1.0314893506797e-05
-0.00146488595896136
-0.0142777203774516
-0.0391754043795699
-0.07358953385558
-0.111182774620046
-0.142220383931783
-0.154932963329564
-0.13777973197999
-0.0822463763426656
0.0144281925001712
0.147322237679432
0.303359523130301
0.462684502131197
0.601836824840465
0.698179151970521
0.734613140866379
0.703421685760799
0.608199546444237
0.463286812830486
0.290788932646739
0.11594212056485
-0.0379705522493406
-0.153882876177023
-0.223440088201944
-0.247339581460288
-0.233731508374435
-0.195340760266261
-0.146168392381412
-0.0985726183666828
-0.06128620508727
-0.0386009698321127
-0.0306401332777002
-0.034416118724508
-0.0452670995453043
-0.0582764391169999
-0.0693760068600708
-0.0759755470552477
-0.0771036097265659
-0.0731577108937512
-0.0654238423075329
-0.0555357377716934
-0.0450129207197293
-0.0349612276363742
-0.0259590999069793
-0.0181027676027254
-0.0111526674497489
-0.00471453477401881
0.00160167327737924
0.00808065489715078
0.0148696875900688
0.0220060514831821
0.0294809122712467
0.0373113694876953
0.0455946426041402
0.0545265425559141
0.0643781298617148
0.0754368602372985
0.0879284329730395
0.101940380229931
0.117367017729313
0.133888726561614
0.15098950145017
0.168008409726586
0.184214774365276
0.19889355449893
0.211426071873073
0.221352023484755
0.22840211943158
0.232496585952849
0.233711960407196
0.232225223459267
0.228248789957884
0.221971453644222
0.213518943590892
0.202943388949865
0.190243958130377
0.175412322396844
0.158488887846206
0.139612188479908
0.1190464686669
0.0971804495518501
0.0745000671388371
0.0515454378192821
0.0288647957945734
0.00697552645707766
-0.0136631765278998
-0.0326669119702915
-0.0497355495699669
-0.0646587396483502
-0.0773183127219514
-0.087686376987958
-0.0958175821001312
-0.101835629497525
-0.105916691014446
-0.108274185759773
-0.10914880235575
-0.108804561202017
-0.107527634992012
-0.105621909068269
-0.103395561302358
-0.101136522389124
-0.0990802767477395
-0.0973786883863766
-0.0960807326515055
-0.0951336292532974
-0.0944065502147838
-0.0937314977791801
-0.0929503407087993
-0.0919554441599956
-0.0907139659480375
-0.0892712466541608
-0.0877346754148201
-0.0862441455869426
-0.0849376726349421
-0.0839206703858582
-0.0832451803669884
-0.082901985135846
-0.0828252681477985
-0.0829073453459737
-0.0830202576303784
-0.0830410667728313
-0.0828775811937117
-0.0824905049382523
-0.0819071980028259
-0.0812225363655998
-0.0805845934564913
-0.0801666628410829
-0.0801309803280491
-0.080591732813684
-0.0815849759451865
-0.0830516201697847
-0.0848376946911956
-0.0867138973752071
-0.0884134107939864
-0.089682697408469
-0.0903351919003477
-0.090294429744804
-0.0896134939199124
-0.0884629717160343
-0.0870888961585941
-0.0857521129871065
-0.0846669866079265
-0.0839574117075071
-0.0836415923118782
-0.0836467006104895
-0.0838446365806513
-0.0840946000181557
-0.0842786970535677
-0.0843219435103681
-0.0841945961358948
-0.0839000356714999
-0.0834545231631127
-0.082866277862781
-0.0821206417167495
-0.0811755415418843
-0.0799674993321273
-0.0784244318501053
-0.0764791325485392
-0.0740777830771061
-0.0711809999851862
-0.0677593048994895
-0.0637882377687893
-0.0592488022608481
-0.054136380906969
-0.048477302120041
-0.0423491655096533
-0.0359002508002069
-0.0293644481456897
-0.023069219882106
-0.0174332018342786
-0.0129471219035647
-0.0101292560385443
-0.00944830428193636
-0.0112145627352286
-0.0154536554758784
-0.0217920952166812
-0.0293954167821701
-0.0370022741291473
-0.0430871320713046
-0.0461576831596736
-0.0451530516314276
-0.0398634576060732
-0.0312548698167976
-0.0215686845082782
-0.0140887584763947
-0.0125301240323242
-0.0200982439207801
-0.0383763932680477
-0.0662948238555215
-0.0994882014206381
-0.130329964695223
-0.148827937825381
-0.144379302539406
-0.108145820529617
-0.035578741852471
0.0715304983415279
0.204105266265225
0.346400468878212
0.478293234394284
0.5789200553728
0.6309153174064
0.624243830283445
0.558621251241044
0.443821120625323
0.297714590888383
0.142517273330823
0.000215450901299062
-0.111662434389301
-0.182930609279391
-0.211736044838057
-0.203656463459643
-0.169384656709979
-0.121748947652148
-0.0728487255536557
-0.0319112448500102
-0.00418860283137048
0.00909018859817475
0.00993828180624048
0.0023608377915613
-0.0089861543254808
-0.0199225104507858
-0.0274740329202656
-0.0301569617321008
-0.0278761380819708
-0.0215628355241225
-0.0126989875640729
-0.00285762898341889
0.00665060325138635
0.0149823681515238
0.0218175080476435
0.0272951914032131
0.0318746158789805
0.0361666817277269
0.0407761587533633
0.0461823060064164
0.0526728588551877
0.0603335363227431
0.069083913084291
0.0787421038394294
0.0890968646830815
0.0999673411090086
0.111237210419657
0.122859266508569
0.134835530032275
0.147183790343403
0.159902457489604
0.172942216035338
0.186187699254037
0.199448410122133
0.212457390011122
0.224878136028056
0.23632225747705
0.246379485698784
0.254657263756445
0.260821478001028
0.264626554979697
0.265924687833942
0.264650360682992
0.260785221904642
0.25431632237072
0.245204756025625
0.233379950409029
0.218767014530091
0.201342575924032
0.181202627531217
0.158619236152968
0.134064926948393
0.108193456093951
0.0817791138995788
0.0556284238909468
0.0304847970610161
0.00694753649540705
-0.0145778129596621
-0.0338891584036759
-0.0509593900105268
-0.0658812172735587
-0.078802849111933
-0.0898726764302989
-0.0992062719867058
-0.106880596476716
-0.112951336143817
-0.117482747674556
-0.120576975120989
-0.122391671125465
-0.123139821246541
-0.123072114091452
-0.122447850158124
-0.121503382310871
-0.12042676916009
-0.119344536015443
-0.118322757517099
-0.117381284968715
-0.116517189986859
-0.115731392672453
-0.115051302808251
-0.114542802813669
-0.114307489260846
-0.11446529180527
-0.115126923938772
-0.116363442185874
-0.118180799261683
-0.12050613106086
-0.123190325683742
-0.126028326227135
-0.128794542674703
-0.131286362096043
-0.133365626877488
-0.134987589227604
-0.136209582187055
-0.137176533444658
-0.138085982030891
-0.139140105635878
-0.140495559538296
-0.142223154913363
-0.144288160310495
-0.146557949532224
-0.148836968892332
-0.150920820713975
-0.152654234392819
-0.153974870625116
-0.154928281844151
-0.155648579191784
-0.156311366693857
-0.157075495769587
-0.158033828119853
-0.159188955692529
-0.160459864680177
-0.161714277709605
-0.162813180615528
-0.163651411828788
-0.164181533375288
-0.164415750292078
-0.164409036807192
-0.164232300457396
-0.163945452154559
-0.163577358015114
-0.163115460570054
-0.162505064593779
-0.161657910076427
-0.160470588024505
-0.158853354660201
-0.156767292722828
-0.154262615002007
-0.151505065500701
-0.148773829269333
-0.146416299113096
-0.144754648706048
-0.143955939382708
-0.143896934905997
-0.144068961728507
-0.143568784597517
-0.141204236155749
-0.135710632674151
-0.126035017618664
-0.111613480010433
-0.0925555670662691
-0.069667308247687
-0.044289496087905
-0.0179889710258602
0.00780222339823193
0.032074146814422
0.0543388348604597
0.0744856129173092
0.092422195689785
0.107622986962594
0.118769463205495
0.123677724069651
0.119652742192827
0.104292842112637
0.0766155519958379
0.0382266895394456
-0.00584475834497899
-0.0470301178961737
-0.0740958459317632
-0.0750572578481907
-0.0398790263792002
0.0365890793462945
0.152196571658349
0.296371655743816
0.450857421656115
0.592440146783917
0.697260943466854
0.74579341081296
0.727265882341078
0.642337165875099
0.503235532017501
0.331249670248482
0.152206914127174
-0.00886869406031993
-0.132551285278452
-0.208143490250359
-0.234578128841957
-0.219170042011196
-0.174820551621508
-0.116552555661469
-0.0582554935078418
-0.0103039590445772
0.0216164883895919
0.0364812089926712
0.0369649189003644
0.0279600745296892
0.0150075203027245
0.00298954839526706
-0.00470529325964008
-0.00648951251532381
-0.00242755940432224
0.0062187772605709
0.017573694535484
0.0297022603738999
0.0410283176279443
0.050565742510834
0.0579665065256725
0.0634262903825378
0.0675065205872532
0.0709324777301337
0.0744152708078439
0.078526759101724
0.0836367339757496
0.089905814001616
0.0973185668884344
0.105739464008922
0.114976846182509
0.124843668771674
0.135206234766778
0.146013504112703
0.157301326139614
0.169169259149673
0.181732571405421
0.195057626817377
0.209093709273471
0.22361694432929
0.238201273411864
0.252227156180357
0.264931341253079
0.27549178208159
0.283132437575418
0.28722601600323
0.287371559787869
0.283429445237058
0.275507447305093
0.263904329987396
0.249027888498842
0.231309639393175
0.211137492227358
0.188821608271391
0.164599338639587
0.138675094653505
0.111282398133073
0.0827498092490035
0.0535509678232911
0.0243219090570299
-0.0041643816049587
-0.0310666274019329
-0.0555767241651589
-0.0770335321913607
-0.09502207842781
-0.109431483689523
-0.120453603698117
-0.128520308747113
-0.134195808275675
-0.13805458870227
-0.14057943625396
-0.1421057902389
-0.142821706398413
-0.142813990227339
-0.14213766437647
-0.140881886202336
-0.139210563603211
-0.137366828101483
-0.135642606083962
-0.13432395772217
-0.13362779939388
-0.133646298925528
-0.134312878664577
-0.135399436424549
-0.136548516244691
-0.13733700681911
-0.137360362243767
-0.136319978426821
-0.134093375693361
-0.130769146377634
-0.126636698680053
-0.122132683514065
-0.117757563838776
-0.113982934871165
-0.111170894120704
-0.109521728063224
-0.109057904261211
-0.109643503402385
-0.111030731513932
-0.112920170977368
-0.11501965079859
-0.117088376655753
-0.118958006691957
-0.12052960735094
-0.121753013650455
-0.122600748389213
-0.123050115330458
-0.12308307831756
-0.122704768339851
-0.121971208238181
-0.121010034263199
-0.120018614886755
-0.119232452979392
-0.118869393562374
-0.119066130061796
-0.119828063074467
-0.121010172294192
-0.122336986249843
-0.123457747000107
-0.12402255365916
-0.123759696421045
-0.122534917731795
-0.120379479880637
-0.117483522644055
-0.114160860408957
-0.110797507220758
-0.10779670723811
-0.105528743581407
-0.104287558269569
-0.104252259652535
-0.105452316947561
-0.107739959990735
-0.110778560235252
-0.114057331091786
-0.116938267474465
-0.118732292138068
-0.118792605123737
-0.116608906014513
-0.111888171866866
-0.104613690578449
-0.0950793510687509
-0.0838968861692811
-0.0719695860353412
-0.0604209623159418
-0.0504671069243752
-0.0432315169154922
-0.0395205527970299
-0.0396007400524784
-0.0430369909622766
-0.0486548917319603
-0.0546750115497548
-0.0590326093287292
-0.0598481634673437
-0.0559638356822435
-0.047421379467754
-0.0357400962447109
-0.0238678430623765
-0.0157275721799143
-0.0153639473718011
-0.0257989346296897
-0.0478127407316586
-0.0789499030402289
-0.113078803940581
-0.14077981147651
-0.150690954011859
-0.131713871099668
-0.0757206193089455
0.0198257616995428
0.150036512255987
0.302180986200863
0.4570558718687
0.592083014364268
0.685597657683854
0.721386533111408
0.692350232937376
0.602292233646144
0.465284091140698
0.302711748342338
0.138762267386505
-0.00446668812623886
-0.11100792922918
-0.17331961326638
-0.192495875593191
-0.176634207933545
-0.138021137586253
-0.0899689421255114
-0.0440627541879587
-0.00833235354392425
0.0134528288393716
0.021459587936947
0.0187369520485669
0.00982263416979361
-0.00061577432328527
-0.00882435199401871
-0.0125435192393012
-0.0111128052971189
-0.00519375031162611
0.00373265650166889
0.0139240828997621
0.0238486136610052
0.0324827193121214
0.0394104845274771
0.0447529572745873
0.0489905218515432
0.0527517826043104
0.0566322691044063
0.0610820591572933
0.0663718287882885
0.072620830256796
0.079855055344552
0.0880624986670814
0.097223015330176
0.107306816414282
0.118250959833477
0.12993163970511
0.142149459353482
0.154636868117233
0.167085969085661
0.179185931580502
0.190655686988418
0.201260280795068
0.210806554400471
0.219122472968234
0.226030815294029
0.231329646203676
0.234788670950294
0.236163974229693
0.235226597378143
0.231795499132685
0.225764157639071
0.217112573048805
0.205901798480094
0.192254628291018
0.176331496533168
0.158312887779405
0.138397453544622
0.11681891902933
0.0938767036919044
0.0699679022680696
0.0456048546028958
0.021404924147691
-0.00195279415663163
-0.0237979561878564
-0.043550927186307
-0.0607959936693483
-0.0753279664119028
-0.0871621225913769
-0.096507442390568
-0.103711841578943
-0.109193140207762
-0.113370079903447
-0.116604813533881
-0.119163937486026
-0.121201016545405
-0.12276030914145
-0.123798946357817
-0.124222987921452
-0.123931434958351
-0.12286109289103
-0.121023924687007
-0.118527820045998
-0.115573063545323
-0.112421631657265
-0.109344624379427
-0.106562153347191
-0.104195659738972
-0.102250990108691
-0.100640528606245
-0.0992375129305253
-0.0979418762178597
-0.096731101519108
-0.0956747652681939
-0.0949057935051162
-0.0945590062956894
-0.0947010002553256
-0.0952793666536742
-0.0961122340008317
-0.0969241320663506
-0.0974171681892368
-0.0973539700640352
-0.0966252408681628
-0.0952808973812103
-0.0935166735384924
-0.0916225479867999
-0.0899102282795717
-0.0886410758455897
-0.0879729750147376
-0.0879367909860046
-0.0884435463783994
-0.0893155460303749
-0.0903303964407017
-0.0912663552498382
-0.091939559185558
-0.0922271535921556
-0.0920744442532611
-0.0914883162309122
-0.0905223276780928
-0.0892599607031104
-0.0878010476964579
-0.0862531247817369
-0.0847260309042886
-0.0833261405156775
-0.0821469588449729
-0.0812549226175106
-0.0806719080949863
-0.0803581562136662
-0.0802006940867719
-0.0800126010719962
-0.0795470633645691
-0.0785266597142898
-0.0766833661191558
-0.0738003526681487
-0.0697453474243831
-0.0644888746238339
-0.0581083369093549
-0.0507868585512847
-0.0428184148096136
-0.034624237117583
-0.0267714084032513
-0.0199703747630399
-0.015023261663503
-0.012705228149867
-0.0135850896550504
-0.0178207128797538
-0.0249880654742843
-0.0340110137014771
-0.0432473786867468
-0.0507558113711645
-0.0547225145994087
-0.0539752981156669
-0.0484667433435889
-0.0395821038728814
-0.0301336554072569
-0.0239492133204053
-0.0250474024560378
-0.0365039224035443
-0.0592284599180865
-0.0909600466376217
-0.125816710636844
-0.154677288372821
-0.166520154088008
-0.150612046755716
-0.0991768521552275
-0.00995112497856716
0.112069293961283
0.254307121553375
0.398043553985389
0.521529543310053
0.604204357572284
0.63107687237424
0.596169627435331
0.504078880162961
0.369160442052371
0.212495492726302
0.057418254996182
-0.0752215046943616
-0.170870819311703
-0.223316230761671
-0.234673979014398
-0.21361415155341
-0.172505943327249
-0.124316642895178
-0.0799986871471327
-0.0468371829406821
-0.0279104745917214
-0.0225327667548121
-0.0273605457938614
-0.0377737028958199
-0.049174827699428
-0.0579529348852991
-0.0619909866095561
-0.0607237901158137
-0.0548481325770664
-0.0458370840224422
-0.0354145864682067
-0.0251145872450634
-0.0159974597222335
-0.00854273772328131
-0.00269445597084958
0.00199014067010032
0.00614608474086602
0.0104127221685108
0.0152908633816479
0.0210660959476772
0.0278018823063507
0.0353911980090599
0.0436445240538266
0.0523859581551822
0.0615289958192721
0.0711097461886643
0.0812674304496995
0.0921775654022298
0.103958098799235
0.116578170610682
0.129799652307788
0.143172576039039
0.156089645927103
0.167887122865688
0.177965043116104
0.185893523342663
0.191475918526615
0.194752560347306
0.195946341798407
0.195367776472252
0.193307535325753
0.18994651448187
0.185307437991655
0.179259847199345
0.171575206990897
0.16201476126652
0.150423938164882
0.136806584606846
0.12136025161828
0.104466830323146
0.0866456619005426
0.0684841860742566
0.0505627603418958
0.0333873313843116
0.0173394154408024
0.00264951150820239
-0.0106024646577316
-0.0224595065213776
-0.0330377908948749
-0.0424665924935341
-0.0508340618475075
-0.0581544934478328
-0.0643662056671576
-0.0693590617817327
-0.0730210039379383
-0.0752873814501118
-0.0761772094291201
-0.0758064418914964
-0.0743773973359007
-0.0721517693220942
-0.0694185556446787
-0.0664662946628497
-0.063563005738413
-0.060941356562131
-0.0587846835612803
-0.0572124261580021
-0.0562685526152642
-0.0559194420450771
-0.0560659769923615
-0.0565692598216181
-0.0572837535401157
-0.0580889096880308
-0.0589114689061539
-0.0597343653747611
-0.0605923561537026
-0.0615573803251215
-0.0627176179642488
-0.06415378608052
-0.0659154692058825
-0.0680000915843157
-0.0703376268274926
-0.072784827116045
-0.0751328815646886
-0.077131176797338
-0.0785267311288673
-0.0791142933672909
-0.0787874629719427
-0.0775782493228861
-0.0756724771246268
-0.0733919633641345
-0.0711415602242589
-0.0693290842377436
-0.0682761010040176
-0.0681433646620108
-0.0688930470497992
-0.0703004291114826
-0.0720136145985031
-0.0736459008025724
-0.074875972568387
-0.0755285557612884
-0.0756131366915567
-0.0753096263756425
-0.0749045509947761
-0.0746953192604923
-0.0748890149745331
-0.0755231432131354
-0.076428797168228
-0.0772446250705748
-0.0774769816465593
-0.0765914290537872
-0.0741152777519085
-0.0697304688874857
-0.06334025221204
-0.0551007620519232
-0.0454178397785395
-0.0349171750468443
-0.0243984669744964
-0.0147799959409264
-0.0070308632059123
-0.00208032502716957
-0.000694125654040356
-0.00331983007709188
-0.00992379232497501
-0.0198631917708453
-0.0318476685705607
-0.0440391571210981
-0.0543133727724204
-0.0606659521828031
-0.0616996230829188
-0.0570879527026695
-0.0478880767684068
-0.0365789098608584
-0.0267383238449684
-0.0223424416824818
-0.0267641897864878
-0.0416489650799384
-0.0659274788259882
-0.0952616567814222
-0.122185598422594
-0.137089196248333
-0.130005667450031
-0.0929380723583863
-0.0222483855485762
0.079496563242889
0.202812933142772
0.332120969663189
0.448150729674727
0.531555239138122
0.566963853575797
0.546486660955762
0.471725675710081
0.35368641726356
0.210539483576108
0.0637868898235987
-0.066165497474937
-0.163898173270008
-0.221421242261255
-0.238733946420484
-0.222606753445448
-0.184127599089175
-0.135771779219
-0.0887357907597291
-0.0510728115517483
-0.0268734283110463
-0.0164444769038927
-0.0172233116578719
-0.0250601955961663
-0.0355066291698946
-0.0448336991206214
-0.0506308801957574
-0.0519630541352685
-0.0491637785128441
-0.0434018791765855
-0.0361743377855406
-0.0288580367572421
-0.0224082868774952
-0.017237602457103
-0.0132579647997685
-0.0100347642205283
-0.00698616908120417
-0.00356692017253866
0.000605459100488685
0.00569943236313358
0.0116877577168453
0.0184137956879615
0.0256770905245435
0.0333109558492649
0.041232812085171
0.0494592784351617
0.0580887122332208
0.0672608711981453
0.0771055122655478
0.0876903808256351
0.0989767741391669
0.110789377714092
0.122806124312554
0.134572079683683
0.145537974163429
0.155119339265377
0.162767512679596
0.168040540442953
0.170661438707475
0.170553705687283
0.167848508228854
0.162862987728018
0.156053335292792
0.14794930926827
0.139079020619114
0.129894459137911
0.120709340527234
0.111660786074881
0.10270403062913
0.0936439609368275
0.0841991199985855
0.0740847615824833
0.0630947194082602
0.05116052439236
0.038372184160672
0.0249572799927782
0.0112293253363793
-0.00247319902725562
-0.0158338643711592
-0.0285761174402097
-0.0404513247718161
-0.0512112368029289
-0.060587070705603
-0.0682947966718309
-0.0740741906004521
-0.0777532993523677
-0.0793170662794736
-0.0789541290130423
-0.0770608344540417
-0.0741943314952164
-0.0709826493386842
-0.0680134209510199
-0.065729794578766
-0.0643601445931866
-0.0638985864479834
-0.0641393044596518
-0.0647533475279117
-0.0653856672985231
-0.0657457680350963
-0.0656687807698483
-0.0651340783090832
-0.0642424308325484
-0.063165594515058
-0.0620896862720903
-0.061172890474948
-0.0605291454310905
-0.0602362717186083
-0.0603556893227401
-0.0609468350565614
-0.062064186794203
-0.0637352726607591
-0.0659284857662928
-0.0685252465860387
-0.0713106225874477
-0.0739912430840033
-0.0762412985969688
-0.0777683519999789
-0.0783826758261569
-0.0780497502306521
-0.0769080018713761
-0.0752431653314604
-0.0734240252284442
-0.0718168833469185
-0.0707030045258004
-0.0702216815479069
-0.0703520228664067
-0.0709331860621915
-0.0717112311825765
-0.0723953296882822
-0.0727075961686283
-0.0724170613024309
-0.0713557688000417
-0.0694206539508056
-0.0665672487427153
-0.0628007076001402
-0.0581679480906689
-0.0527538224305374
-0.0466848087923856
-0.0401443258904624
-0.0334017274161204
-0.0268502263448271
-0.0210380990044489
-0.0166672258748183
-0.014531016044675
-0.0153765341046049
-0.0197031215105484
-0.0275429071162125
-0.0382927491212089
-0.0506698078955299
-0.062840109405889
-0.0727270944420725
-0.0784576556337016
-0.078859763061171
-0.0738981858065182
-0.0649280255416194
-0.0546616172655276
-0.046783598121988
-0.045211487205481
-0.053081408793273
-0.0716300069964852
-0.099224434294562
-0.130835520890092
-0.158226883225776
-0.171026003936208
-0.158653470109137
-0.112842635292272
-0.0302416122704338
0.0855701176473277
0.223320843716748
0.365011496774114
0.48868516366041
0.572581952315015
0.59979604423911
0.56228214864506
0.463106340152507
0.316233499659444
0.143799110102025
-0.0284748171165341
-0.176535661778112
-0.282591703918678
-0.337963536635673
-0.343676905459825
-0.308921804421603
-0.248023270137392
-0.176835743896855
-0.109457826258006
-0.0559275035944828
-0.0212065053331964
-0.00540893129053977
-0.00496073404775142
-0.0142386623454516
-0.0272327838705341
-0.0388759058121953
-0.0458391374589683
-0.046756732658648
-0.0419762002921251
-0.0330087786444767
-0.0218758967804624
-0.0105192649365015
-0.000384724562547264
0.00777607806268147
0.0138996424584302
0.0184527667106379
0.0221939015474278
0.025925104775625
0.0302928928130316
0.0356742752546599
0.042158086072097
0.0496068123219019
0.0577660391603815
0.0663814400741201
0.0752878658478815
0.0844488771519239
0.0939428505903762
0.103907847031935
0.1144674994933
0.12566254456736
0.137407925924626
0.149485721195107
0.161572377665714
0.173288348385684
0.184252547577657
0.194124964188995
0.202627587447737
0.209543396660031
0.214701377346173
0.21795900676324
0.219191527474287
0.218291582832285
0.215176910295349
0.209800563975576
0.202158325439185
0.192290538217226
0.18027881666605
0.166240393665113
0.150323509061751
0.132706352293774
0.113600425543568
0.0932575667435394
0.0719786252037377
0.0501208901325499
0.0281007449842907
0.00638779978364925
-0.0145126078475906
-0.0340896070716858
-0.0518671938615123
-0.0674481986455236
-0.0805523232819511
-0.0910390012598067
-0.0989096113221478
-0.104289420915169
-0.10739514971908
-0.108497310598686
-0.107886829300602
-0.105853177684594
-0.102677095717751
-0.0986358515213846
-0.0940142456172619
-0.0891120054319332
-0.0842394030242058
-0.0796979869305731
-0.0757502356990032
-0.0725873759850086
-0.0703059302788506
-0.0689004754544938
-0.0682745299734524
-0.0682660926599137
-0.0686810305291789
-0.0693268076786593
-0.0700403239431211
-0.070705699764251
-0.0712598369285491
-0.07168554394141
-0.0719945096005211
-0.0722053925824403
-0.072324447967435
-0.0723356548539189
-0.0722037088663246
-0.0718881279280665
-0.0713629332816128
-0.0706357572157346
-0.0697621023271504
-0.0688523724365047
-0.0680695183621008
-0.0676144723205073
-0.0676972384048829
-0.0684947695208872
-0.0701015482586161
-0.0724829661492852
-0.0754436669477743
-0.0786224428925709
-0.0815216928038738
-0.0835725406371825
-0.0842271484496713
-0.0830601528041652
-0.0798556405089477
-0.074658310458549
-0.0677780241320944
-0.0597519158048759
-0.0512805164442848
-0.0431575503055121
-0.0362056068817844
-0.0312163562695568
-0.0288826822985972
-0.0297085572235311
-0.0338934986978963
-0.0412088150337183
-0.0509044790391242
-0.0616983008346215
-0.0718946619321575
-0.0796549819909306
-0.0833996680604655
-0.0822712895953623
-0.0765451199591547
-0.0678511238196381
-0.0590835020443251
-0.0539258944815716
-0.0560080502854163
-0.0678177019496772
-0.0895946782522459
-0.118503392196705
-0.148386723113129
-0.170329688335694
-0.174102230347731
-0.150327262799922
-0.0929797122185919
-0.00163320494204391
0.117193001672641
0.250120425166644
0.378667475357562
0.482486972535059
0.543454941277943
0.54965845449848
0.498249772208748
0.39635690454665
0.259732960987411
0.109450077400632
-0.0325064396834976
-0.147603446778696
-0.224018057042833
-0.258107770505208
-0.253954257506352
-0.221351077314499
-0.172933941603396
-0.121239268844051
-0.0763474494333771
-0.0445024753976299
-0.0277980249860937
-0.0247652927258305
-0.0315396123399685
-0.0432338112021496
-0.0551894750452794
-0.0638796442185762
-0.0673608553271203
-0.0652875252332457
-0.0585869681410123
-0.0489400105026197
-0.0382205953992263
-0.0280241894473205
-0.0193690689139331
-0.0125990105938067
-0.00746395997424617
-0.00331860399538389
0.00063587375999737
0.00513449482062728
0.0107009279456589
0.0175868462352317
0.0257902201164117
0.0351276476927984
0.0453286871225111
0.0561219149755368
0.067290982689265
0.0786913441286747
0.09023111152429
0.101829481301126
0.113371281242915
0.124675679666506
0.135491431557943
0.145521848157275
0.15447257126581
0.162107198240007
0.168292442340381
0.173017293001126
0.176379052447011
0.17854018803811
0.179669104490703
0.179881554903608
0.179197006688229
0.177518537861754
0.174639162884635
0.170273455505896
0.16411025860951
0.155878835059719
0.145416961088496
0.132726782800992
0.118004764537358
0.101636627429035
0.0841559018583742
0.0661734843055474
0.0482930781003002
0.0310316785718703
0.0147639372686126
-0.000296283236027758
-0.0140737593700201
-0.0265775163702336
-0.0378324673931412
-0.0478198501903753
-0.0564463252475458
-0.0635518993858717
-0.0689535935023189
-0.072509738231245
-0.0741832776657658
-0.0740835705839053
-0.0724740095204943
-0.0697440585650405
-0.0663548400390191
-0.0627737135115066
-0.0594139642906452
-0.0565916965767204
-0.0545056994916079
-0.0532397734593809
-0.0527821946071717
-0.0530542638252709
-0.0539394666209379
-0.0553065767432735
-0.0570234441425247
-0.058962062912188
-0.0609985566494978
-0.0630130516659923
-0.0648937169280539
-0.0665468062740731
-0.0679111788585224
-0.0689727784933307
-0.0697732155669574
-0.0704075373426091
-0.0710090725885767
-0.0717228687406545
-0.0726728492057815
-0.0739308018646433
-0.0754966580869637
-0.0772977274799768
-0.079208901694696
-0.0810878912800317
-0.0828128898168971
-0.0843080840521582
-0.0855462530583111
-0.0865258133465478
-0.0872292169619669
-0.0875776645783531
-0.087401095236231
-0.0864404114746631
-0.0843903360148809
-0.0809780168098863
-0.076058921955518
-0.0697032540223267
-0.0622470056000119
-0.0542916796175844
-0.0466509684679951
-0.0402548145481312
-0.0360268027622319
-0.0347499115261626
-0.0369324593898434
-0.0426856321441541
-0.0516284700299164
-0.0628434460305819
-0.0749104363275032
-0.0860434935778527
-0.0943405016428481
-0.0981313417851852
-0.0963796755897909
-0.0890630053975084
-0.0774328546458821
-0.0640503606601555
-0.0525110292590895
-0.0468217814013642
-0.0504725169083598
-0.065341518627637
-0.0906666985197133
-0.122373543504518
-0.153046479547204
-0.172743528729524
-0.17068339089267
-0.137603271009618
-0.0683454669396692
0.0359478648423333
0.166694416999581
0.308302611071047
0.440356043034871
0.541276619444992
0.59273346992487
0.583752949980963
0.513445109825616
0.391548926440615
0.236560092118794
0.0718783592552109
-0.0790291457822739
-0.197203914086147
-0.271408953263481
-0.299336850553127
-0.286767839250902
-0.245160424696544
-0.188469707583131
-0.130036736164409
-0.0802164905879003
-0.0451072673667232
-0.0264174751118411
-0.0222435167907692
-0.0283826590590942
-0.0397758679616168
-0.0517450797646376
-0.0608176214104685
-0.0650738826017686
-0.0640759929571209
-0.0585120526296047
-0.0497155715387497
-0.0392006770346797
-0.0283069809798077
-0.0179931695499933
-0.00877183391398495
-0.00074938226185766
0.00627431822621735
0.0126862477719292
0.018947129586432
0.0254982568770795
0.0326925588831812
0.0407505379470692
0.0497415754595707
0.0595914191236306
0.0701149400630888
0.0810687814684625
0.0922126132979313
0.103363131960172
0.114424696477511
0.125386084556245
0.136283083575774
0.14713789637039
0.157894410097396
0.168370387682447
0.178243052485704
0.187074922060619
0.194375129955928
0.199681483509559
0.202643139603219
0.203084150268944
0.201033217262607
0.196712719242741
0.190488566792825
0.182790406939401
0.174018078419706
0.164453931062658
0.154200684284842
0.143160357035271
0.131061806946574
0.117534167097787
0.102213424427158
0.0848617827939579
0.0654755219365062
0.0443572686430322
0.0221333243961208
-0.000293833925008456
-0.0218544300071762
-0.0414636644802664
-0.0581876601928458
-0.0713881675155772
-0.0808146382838091
-0.0866240051588026
-0.0893254022501418
-0.0896645262147102
-0.0884756839944578
-0.0865354069914133
-0.0844485816560506
-0.0825875495427764
-0.0810898565322511
-0.0799056416925709
-0.0788750979434017
-0.0778124845374416
-0.0765759885456063
-0.0751102568156846
-0.0734574045782166
-0.0717398964866329
-0.0701235751845822
-0.0687714792606774
-0.0677997041263302
-0.067245839677977
-0.067058341198866
-0.0671111593658961
-0.0672418958380248
-0.0673043851627722
-0.0672200950489201
-0.0670102891870049
-0.0667950929938551
-0.0667564047995897
-0.0670755042490584
-0.0678674071048956
-0.0691370403904184
-0.0707749184069603
-0.0725946722971405
-0.0743979262248663
-0.0760409564144388
-0.0774769638771166
-0.0787575116874515
-0.0799923232288902
-0.0812818553027275
-0.0826462421802703
-0.0839746244422686
-0.0850115686733142
-0.0853861380640881
-0.0846785772785811
-0.0825122027445453
-0.0786542332562216
-0.0731077614034246
-0.0661766599510596
-0.058485867825483
-0.0509424802037542
-0.0446301371234862
-0.0406411151483615
-0.0398659253810648
-0.0427757717136595
-0.0492446580746327
-0.0584612002152664
-0.0689723530691895
-0.0788813249419337
-0.0861916248731278
-0.0892529874044857
-0.087229442514053
-0.0804827763673688
-0.0707541969687918
-0.0610409235071926
-0.0551082580780816
-0.056651894931881
-0.0682216008594604
-0.0901171602710914
-0.119542481615983
-0.150322318086145
-0.173422688518676
-0.17836281449481
-0.155381896961816
-0.0979767343542824
-0.00522737198238474
0.116746369078567
0.254750537782208
0.390168905898132
0.502144713374955
0.571690700504886
0.58578898554383
0.54043668423448
0.4417879141827
0.305015679525979
0.151140001539477
0.00263902641187701
-0.121021194928533
-0.206841075115445
-0.249991177268472
-0.253567091864378
-0.226718265671119
-0.181826574948106
-0.131526254687325
-0.086250763752759
-0.0527377976659797
-0.0336169507819416
-0.027932885695734
-0.03227889342469
-0.0421532986422365
-0.0531926017612751
-0.0620462832160479
-0.0667959910544525
-0.0669476441045015
-0.0631126005562727
-0.0565330099039111
-0.0486004932691984
-0.040479491040788
-0.0328937217506619
-0.0260816820780633
-0.0198861964705271
-0.013919761998097
-0.00774319298403771
-0.00100719304781734
0.00647107317227693
0.0146996622728949
0.0235557528743314
0.0328561999405042
0.0424293314781937
0.0521690327494197
0.0620607401073768
0.0721767598383846
0.0826443180355387
0.0935941430490193
0.105100573991166
0.117126115475951
0.129483522407866
0.141826345066522
0.153674109727982
0.16447113854121
0.173669385747554
0.180817699339195
0.185635662121755
0.188052256341832
0.188198372465538
0.186354929775272
0.182870539837528
0.178070152554645
0.172177150437561
0.165266624672115
0.157259441927685
0.147957749394532
0.137114325151784
0.124521133809724
0.110097108493797
0.093953171167508
0.0764159877955119
0.0580016442909149
0.0393441295721729
0.0210966807178635
0.003831886743401
-0.0120338930296146
-0.0262744446740748
-0.0388414103150292
-0.0498141387961391
-0.0593292559516692
-0.067511304903561
-0.0744239198956313
-0.0800542160673446
-0.0843329960759333
-0.0871825511312102
-0.0885754124146748
-0.0885840771205455
-0.0874046114585021
-0.085345162229839
-0.0827811313357902
-0.0800887999830042
-0.0775757583085872
-0.0754279089462516
-0.0736885276070857
-0.0722756784895115
-0.0710326809275899
-0.0697961188961504
-0.0684607199907915
-0.0670220494642547
-0.0655855252971041
-0.0643409060913456
-0.0635114605743671
-0.0632933336007188
-0.0638016796563306
-0.0650365147973736
-0.0668749424747004
-0.0690897058059241
-0.0713886087484769
-0.0734660855021653
-0.0750571130977301
-0.0759842013714989
-0.0761897078562377
-0.0757479208852671
-0.0748542453712753
-0.0737922650857938
-0.0728829318540944
-0.0724231167072332
-0.0726230238120488
-0.0735533532798986
-0.0751130917111604
-0.0770266365886555
-0.0788741781277412
-0.0801523523569652
-0.0803548369521668
-0.0790574217131711
-0.0759915953509451
-0.0710954252396393
-0.064538207858853
-0.0567219021819994
-0.0482642414904484
-0.0399650283659906
-0.032751069987055
-0.027590993090931
-0.025373029578963
-0.0267487291422444
-0.0319617625737877
-0.0406983119115512
-0.0520068539767671
-0.0643339267895152
-0.0757055243707638
-0.0840529551597816
-0.0876439809161964
-0.0855437981788255
-0.0780041723506161
-0.0666689967206914
-0.0544957093126192
-0.0453287537754838
-0.0431255667015941
-0.0509229127878676
-0.0697274121518959
-0.0975944460941885
-0.129194096188378
-0.156123576573605
-0.168098281321156
-0.154947561202096
-0.109096049017685
-0.0279928000365626
0.0841636741499947
0.216002238417109
0.350210621796031
0.466376180157332
0.544935790265884
0.571356396439092
0.539497659200755
0.453232909978943
0.325824504876775
0.177157693635677
0.0295401276775429
-0.0968366913025452
-0.187635385489495
-0.236473456319505
-0.24506696968439
-0.221639589566682
-0.178220030544468
-0.12761980120961
-0.0808184057166712
-0.0452500894775121
-0.0241805959458868
-0.0170766108551312
-0.0206700142941212
-0.0303321111819206
-0.0413932611852669
-0.0501404150729141
-0.0543585609775191
-0.0534134751119917
-0.047973586307279
-0.0395228012661917
-0.0298225729354133
-0.0204508958887558
-0.012495461427447
-0.00642539283131507
-0.00212351115709133
0.000965410447971067
0.00362597826672709
0.00665779727872241
0.0107007912425803
0.016130287904658
0.0230327658077006
0.0312535445455553
0.040491952089162
0.0504113274124558
0.0607321583809806
0.0712856150738855
0.0820185755384835
0.0929558440215987
0.104136676163895
0.115548174170012
0.12707667309362
0.138490901769174
0.149459960204621
0.15959840102919
0.168523390661005
0.175907313032494
0.181513185818489
0.185207495460638
0.186952215941481
0.186782386687242
0.184777013780006
0.181030149810931
0.175627301762006
0.168630775858471
0.160076197969238
0.149980792071509
0.138361909835912
0.125262179932279
0.110776087975124
0.0950722314949072
0.0784060530331982
0.0611194131806799
0.043625616786305
0.0263811017580539
0.00984761104214793
-0.00554917418029267
-0.0194575563603454
-0.0316280367997208
-0.0419279124582414
-0.0503414732833919
-0.0569578835116647
-0.0619506957908582
-0.0655534305485195
-0.068034671993639
-0.0696741689756686
-0.07073968575005
-0.071464152040124
-0.0720243836242844
-0.0725251635847256
-0.0729938214565636
-0.0733891506948165
-0.0736246243067539
-0.0736010541599393
-0.0732403944450263
-0.072511914534102
-0.0714445164464822
-0.0701233035332409
-0.0686729825599362
-0.0672339341674714
-0.0659379323297552
-0.0648893534918371
-0.0641550479858549
-0.0637631746618164
-0.0637091894843246
-0.0639659611928119
-0.0644944736086771
-0.0652519231391242
-0.0661955355460499
-0.0672827692604299
-0.0684705365145544
-0.0697163631992713
-0.0709826874100521
-0.0722427681742767
-0.073484708777145
-0.0747102565952795
-0.075927302474785
-0.0771380218496594
-0.0783268184709692
-0.0794529131645079
-0.0804515904901417
-0.0812458533358669
-0.0817665682261265
-0.0819748420062321
-0.081877228142588
-0.0815246466284698
-0.0809906936559661
-0.0803332326458496
-0.0795516310053503
-0.0785566155988057
-0.0771673686610446
-0.0751412433732488
-0.0722293311842342
-0.0682421004693316
-0.0631078379860093
-0.0569125097111314
-0.0499183880456416
-0.0425645534918892
-0.0354518447325337
-0.0293091683179169
-0.0249321468727011
-0.0230845297897837
-0.0243608070117648
-0.029024014148491
-0.0368509338790284
-0.0470310120322153
-0.0581688324237924
-0.0684286058983167
-0.0758320729833116
-0.0786820202734402
-0.0760398282143549
-0.0681476798857152
-0.0566662805366443
-0.0446082584711912
-0.0358926325052298
-0.0345255582613143
-0.0435151232575279
-0.063731141293588
-0.0929961061687787
-0.125711896335242
-0.153267038905395
-0.165325209478261
-0.151883402826889
-0.105750094311349
-0.0248941224357591
0.0859739323472826
0.215148387765406
0.345304799534827
0.456410644566997
0.529637314864532
0.551391699907951
0.516450603895268
0.42933604136476
0.303502630395204
0.158504437695965
0.0158752841203712
-0.105203114232555
-0.19137089578677
-0.236944771112519
-0.243911054621376
-0.220317659257983
-0.177681138801146
-0.128154704566961
-0.0821183698947633
-0.0466229848666984
-0.024837852047096
-0.0163985244442164
-0.018379821247438
-0.0265480303106011
-0.0365668781701483
-0.0449176614483297
-0.0494111160382586
-0.0492846897959926
-0.0449692231522101
-0.0376601667273467
-0.0288382156368614
-0.0198595605309549
-0.0116897458373926
-0.00480270270078701
0.000778228010827484
0.00534844566759405
0.00935894877327104
0.0132728489359688
0.0174729839716353
0.0222290021576887
0.0277124633389248
0.034036650242075
0.041295601001314
0.0495830794579874
0.0589833918115011
0.0695378756262957
0.0811998561525099
0.0937949554820286
0.107002737169534
0.120370478823335
0.133361201392473
0.145427470266628
0.156093069464734
0.165020482408677
0.172045668784432
0.177171863643873
0.180526917285729
0.182299118882518
0.182671048406299
0.181768915639832
0.179637710641899
0.176243473399968
0.171496392533437
0.165284487901085
0.157507858418573
0.148106804975556
0.137081511814862
0.124504332492055
0.110526872355659
0.0953829217653961
0.0793857857348145
0.0629163292861947
0.0463980517734417
0.0302588592378916
0.014885028057773
0.000578179679639509
-0.0124724016076835
-0.0241935324188324
-0.0346071082920262
-0.0437918174550846
-0.0518405910291633
-0.0588270570256299
-0.06478944011949
-0.0697330100408631
-0.073645882247711
-0.0765201107154752
-0.0783707159443578
-0.0792480555962891
-0.0792420350745711
-0.0784789734049538
-0.0771130743772713
-0.0753145037129052
-0.0732555650418
-0.0710960963317598
-0.0689693891511825
-0.0669705759778164
-0.0651500787535796
-0.0635147234645108
-0.0620378560610109
-0.0606770742624453
-0.0593948977416182
-0.0581756501146177
-0.0570326674207793
-0.0560038753257502
-0.0551391249731323
-0.054486674564128
-0.054086443234434
-0.0539735671324054
-0.054189272429056
-0.0547907738089333
-0.0558510615517136
-0.0574438335963353
-0.0596161925576356
-0.0623581392263808
-0.0655801358025819
-0.0691073338750895
-0.0726933123042844
-0.0760503511127158
-0.078889614241669
-0.0809635816446485
-0.0821037672537021
-0.0822480949697562
-0.0814537693669317
-0.0798931460086191
-0.077832202815454
-0.0755936889209326
-0.0735094622062707
-0.0718684489277372
-0.0708678955202851
-0.0705761140939799
-0.0709143717863307
-0.0716631909807553
-0.0724938317357679
-0.073020090513945
-0.0728606831485332
-0.0717001123692635
-0.0693367685928962
-0.0657107060574184
-0.0609088680537024
-0.0551508139097357
-0.0487616683043408
-0.0421402919645207
-0.035729590895749
-0.0299927209908861
-0.0253940587865423
-0.0223782947274259
-0.0213372946394467
-0.0225554850654609
-0.026132112171797
-0.0318915129119549
-0.0393062856912281
-0.0474673309876924
-0.0551343320967143
-0.0608882449108872
-0.0633851739444825
-0.0616829053618708
-0.0555828333189063
-0.0459065420268159
-0.0346136028203424
-0.0246719238918711
-0.0196212783652698
-0.0228286624211002
-0.0365178409544028
-0.0607508234362785
-0.0926205742870968
-0.12594925131325
-0.151744104959683
-0.159528172132919
-0.139446292815784
-0.0847930492643453
0.00560944021815487
0.125856561357175
0.262819883671962
0.397729302236286
0.509357219089785
0.578211981168761
0.590780682025017
0.542733809709883
0.440193055819916
0.298646772821313
0.13974148637017
-0.0132272848782429
-0.139961146762799
-0.226802695485502
-0.26859672130756
-0.268532424457904
-0.236267701989246
-0.185011257889626
-0.128375738866655
-0.0777253806337
-0.0404943023862812
-0.0196410765155609
-0.0141202156179818
-0.0200539620477527
-0.0322050340916124
-0.0453760592922306
-0.0554636001992996
-0.0600322639874902
-0.0584074571916118
-0.0513852451963171
-0.0407114280616298
-0.0284906282883262
-0.0166605813680871
-0.00662130796910191
0.000942698045250234
0.00605560488971802
0.00930108313627328
0.0115914781586819
0.0139186579691901
0.0171400732958747
0.0218357813589881
0.0282512637457941
0.0363210041527944
0.0457521297110307
0.0561380977537441
0.0670705533763172
0.0782229328483222
0.0893904536849826
0.100484761997763
0.111493941103123
0.12242633713955
0.13325768668039
0.143895750302532
0.154168004718426
0.163829971172698
0.172587381041935
0.18012501441454
0.186137027722544
0.190355731552999
0.192576754872462
0.192678320195379
0.190631897195594
0.186501832893571
0.180432981552274
0.172627359670629
0.163312799034805
0.152708375908245
0.140993225995309
0.128286715699036
0.114647401315513
0.100094440476423
0.084648368371558
0.0683807535417582
0.051457625703025
0.034162259332378
0.0168889379749289
0.000108164081612941
-0.0156881835447935
-0.0300487009377789
-0.0426180054393996
-0.0531757560561297
-0.061653615478909
-0.0681291877747221
-0.0727994662321644
-0.0759388037216667
-0.0778483626309844
-0.0788055765294473
-0.0790229576564051
-0.0786249400984368
-0.0776487362768605
-0.0760701328956173
-0.0738484018708938
-0.0709780507260453
-0.0675318099198882
-0.0636811106550218
-0.0596871277056545
-0.0558646097491814
-0.0525285758507997
-0.0499378950317057
-0.0482492733999396
-0.0474915303416038
-0.0475650918973137
-0.0482666450702245
-0.0493343270795949
-0.0505048324747544
-0.0515709103998993
-0.0524266967674748
-0.0530897798989455
-0.05369298331956
-0.0544453304554119
-0.0555696645219006
-0.0572319459021019
-0.0594814930063268
-0.0622200291721771
-0.0652099687000554
-0.0681209609874646
-0.0706021380876764
-0.0723600223404799
-0.0732214770392177
-0.0731672578558441
-0.0723314527009658
-0.0709711349325297
-0.0694161020544712
-0.0680102679900364
-0.0670553038596331
-0.0667648629610139
-0.0672351460716275
-0.0684351629552967
-0.0702178522418534
-0.0723508421215951
-0.0745626086315572
-0.0765961697014987
-0.0782592224827615
-0.0794585002522739
-0.0802086200708197
-0.0806120266034077
-0.0808151587567747
-0.0809536171074626
-0.0811027467725759
-0.0812480022329776
-0.0812824912470674
-0.0810301196476457
-0.0802854062007132
-0.0788578389128752
-0.0766098674527622
-0.0734814925323734
-0.0694986207820424
-0.0647657155944279
-0.059446095378923
-0.0537362208566279
-0.0478431553925832
-0.0419752652227511
-0.0363528351323653
-0.0312367295133666
-0.0269617182051106
-0.0239517903204791
-0.0226935269113853
-0.0236534690066991
-0.0271445977672797
-0.0331695033007032
-0.0412859716419123
-0.0505481518296028
-0.0595694463035235
-0.066731148957844
-0.070526027876241
-0.0699839918996237
-0.0650864115877237
-0.0570480772752965
-0.0483433399163897
-0.0423848360459408
-0.0428314645879308
-0.0525991865744512
-0.072755077086225
-0.101563883611591
-0.1339951314958
-0.161960426260178
-0.175423011373479
-0.16431648772717
-0.120966413676134
-0.0424916551540162
0.0674526283566835
0.198179344854697
0.333075567824567
0.452281857642627
0.536478183814055
0.570942894936043
0.548879890810847
0.473116041773498
0.355659222491788
0.215180589209566
0.0730638831028699
-0.0509487330436491
-0.142422449222767
-0.194383418500487
-0.207618445727139
-0.189296845709229
-0.150482768352703
-0.103282163036154
-0.0583215216883638
-0.0230439779344346
-0.00102213838982045
0.00778510571927374
0.0060986316475638
-0.00193743400130095
-0.0119934398283384
-0.0205174292259857
-0.0252886380604291
-0.0255462113544179
-0.0217721760840513
-0.0152620225591168
-0.00762860476661573
-0.000362676990408825
0.00547044042509184
0.00936856564662085
0.011378430361696
0.0119717998730127
0.0118659553241665
0.0118396443070792
0.0125827844251871
0.0146009945526899
0.0181791962527007
0.023395183371453
0.0301657103556033
0.0383048169764262
0.0475766096461417
0.0577313542378364
0.0685220518204592
0.0797056934645459
0.0910370396549954
0.102262750173
0.113121151669268
0.123349415672804
0.132696650380532
0.1409392273689
0.147894126316799
0.153427260398464
0.157455960787632
0.159946798956021
0.160910652432753
0.16039629595207
0.158482752189872
0.155270193582358
0.150869479928791
0.145390651427613
0.138930175056544
0.131555836757736
0.123288264059558
0.114080541002554
0.103802436869992
0.0922416640943119
0.079137784276589
0.0642609633871724
0.0475355752537535
0.0291892002088683
0.00988672514186356
-0.00920406711461107
-0.0264660773264226
-0.0400326733336269
-0.0481196326989033
-0.0494279293680209
-0.0435188702902909
-0.0310516694077884
-0.013796673092692
0.00560760601302149
0.0241138851958355
0.0388373212665476
0.0475987479344054
0.0493073697469387
0.0440968740473242
0.0331978248653678
0.0185973975291439
0.00258485461536175
-0.0127032126424898
-0.0256395930864825
-0.0353045249032713
-0.0415104112404077
-0.0446794068475935
-0.0456271855321826
-0.0453160150017668
-0.0446342582695113
-0.0442422004691773
-0.0445016251237117
-0.0454847033984819
-0.0470413066603145
-0.0488957875297282
-0.0507451187305623
-0.0523378683222462
-0.0535238263660785
-0.054273199161094
-0.0546698632321348
-0.0548851071006536
-0.0551380602091122
-0.0556486551864761
-0.0565898848854509
-0.0580480016479848
-0.060000202731364
-0.0623171287281871
-0.0647917151097501
-0.0671883301931626
-0.0692996192046469
-0.0709955898310184
-0.0722513552894446
-0.0731460632468976
-0.0738339916575802
-0.0744969827430331
-0.0752927278494085
-0.0763140501107498
-0.0775698714152556
-0.0789906099439236
-0.0804525866333428
-0.0818109688274885
-0.0829304633502619
-0.0837065819042004
-0.0840754523011773
-0.0840143546570907
-0.0835369457227234
-0.0826864807359813
-0.0815284926556929
-0.0801429304930348
-0.0786154867933893
-0.0770284306374713
-0.0754519819199172
-0.0739377482019318
-0.0725159072918966
-0.0711973913766256
-0.069980944389965
-0.0688627193742169
-0.0678440748313877
-0.0669329285940827
-0.066136411599388
-0.0654470585593962
-0.0648290961654672
-0.0642127443634067
-0.0635014595280091
-0.0625909512853828
-0.0613928104004875
-0.0598529257841735
-0.0579569241957615
-0.055720532896272
-0.053169256692879
-0.050316191460183
-0.0471475886391688
-0.0436231875276057
-0.0396939088695216
-0.0353350278616355
-0.0305894211108604
-0.0256128397701655
-0.0207107240825519
-0.0163535795617204
-0.0131565344739812
-0.0118109636760727
-0.012964380661666
-0.0170591321131488
-0.0241575062513626
-0.0337955621433406
-0.044915384873981
-0.0559218475850043
-0.0648928718689315
-0.0699410518160746
-0.069682185685177
-0.0637204077959174
-0.0530226226523816
-0.0400416382343566
-0.0284707258641929
-0.0225780914773091
-0.0261721034633694
-0.0413679694308415
-0.0674337821512916
-0.100053554675047
-0.131326188624126
-0.150705273350459
-0.146880854283882
-0.110344740908466
-0.0361271500597514
0.0739763954037982
0.210377913257943
0.356366380048185
0.490591107925997
0.590992779711983
0.63936088031335
0.625418434756809
0.549350952788171
0.422043187168293
0.262889268876457
0.0957173048522076
-0.0561097228822422
-0.174168591896225
-0.247976563644262
-0.275957269267683
-0.264401438039511
-0.224950832748851
-0.171410958305304
-0.116717799416786
-0.0706923555196286
-0.0389084266350951
-0.0226775376317981
-0.0199026318253591
-0.0264146637289379
-0.0373896318629698
-0.0485230643759822
-0.0567725839690964
-0.0606225865663627
-0.0599427986593772
-0.0555839468878079
-0.0488742445247709
-0.0411582197211645
-0.0334709148615754
-0.0263840393502913
-0.0200114625832628
-0.0141284739332397
-0.00834492216760897
-0.00227439211939502
0.00434437795349251
0.0115963969266084
0.0194089182334317
0.0276191717585296
0.0360601068041341
0.0446332283969742
0.0533472550691015
0.0623152481991282
0.0717156256119688
0.0817307892397029
0.0924804002864093
0.103965681680907
0.116037778665537
0.128397918761015
0.140630327393897
0.152261376438867
0.162831833124854
0.171965299834677
0.17941641968743
0.185087341175933
0.189009210720249
0.191295162619202
0.192079877374982
0.191465488854057
0.189492257739343
0.186144629856707
0.181391136936645
0.175244050855661
0.167816192423878
0.15935098716661
0.150208492706492
0.140802943776272
0.131502989449826
0.122520137941777
0.113819681899051
0.105087750099139
0.095776287946971
0.0852264691892397
0.0728460397651848
0.0582956667472134
0.0416313982051766
0.0233590132876191
0.00437951952719214
-0.0141642678521756
-0.0311024625758089
-0.0454604179942569
-0.0566342469952306
-0.0644792269864502
-0.0692949315999424
-0.0717183152645629
-0.0725587745920507
-0.0726209015629204
-0.0725583801264095
-0.0727882010437565
-0.0734738560198339
-0.0745666044893276
-0.0758811540573471
-0.0771787518627813
-0.0782356589542424
-0.0788847520989592
-0.079028562400739
-0.0786303553386726
-0.0776943092103592
-0.0762463167610627
-0.0743242129168677
-0.071981382328471
-0.0693018264837437
-0.0664193708895507
-0.063530731828964
-0.0608931142151414
-0.0588016061949373
-0.0575477657122154
-0.0573659339545197
-0.0583766666353129
-0.0605376413958189
-0.0636126324155698
-0.0671691255798125
-0.0706138551908227
-0.0732709354311955
-0.0744980363307043
-0.0738234699304713
-0.0710751669280998
-0.0664664851716661
-0.0606074652268234
-0.0544245687352676
-0.0489947660359919
-0.0453253839313304
-0.0441312016355973
-0.0456668165496923
-0.0496611394135919
-0.0553744489185158
-0.0617650858414126
-0.0677232520559441
-0.0723122964462323
-0.0749576276834603
-0.0755392489467204
-0.0743708927145115
-0.0720791018168505
-0.069420731154341
-0.0670901874755361
-0.0655653203522326
-0.0650254692333352
-0.0653529183555157
-0.0662070282858317
-0.0671440217988079
-0.0677475197397842
-0.0677358472509484
-0.0670207261667923
-0.0657060610715387
-0.0640319967987289
-0.0622842707930682
-0.0606978757326447
-0.0593842568766921
-0.058302654340987
-0.0572818996356443
-0.0560838676704987
-0.0544884033711445
-0.0523746632001243
-0.0497760501422967
-0.0468939232473672
-0.0440663211805324
-0.0416990010832691
-0.0401747386612739
-0.0397616350030729
-0.0405415175950682
-0.0423754423450533
-0.0449155078707359
-0.0476620451744989
-0.0500546292075444
-0.0515765744963748
-0.0518481573630727
-0.0506858480105752
-0.048113790431136
-0.0443274920497572
-0.0396237746247691
-0.0343206043310943
-0.0286922565327719
-0.0229391309041859
-0.0171998816037997
-0.0116000669093881
-0.00631953190524235
-0.00165247714793533
0.00196847227696028
0.0040078558134323
0.0039323506104865
0.00137340886670883
-0.00368830727342974
-0.0107722362886752
-0.0188441987093817
-0.0264126963114208
-0.0317980010748104
-0.033549655842635
-0.0309334823946178
-0.0243620278314176
-0.0156194794559024
-0.00774777494571499
-0.00452122961210301
-0.00953640668330171
-0.025062669480273
-0.0509073371228537
-0.083614694783945
-0.116311728770874
-0.139418768908974
-0.142262858579613
-0.115393344883989
-0.0531567106253585
0.0440870135034446
0.168759599117844
0.306377214967967
0.437560089766453
0.541481509291516
0.600064494677397
0.601940056795753
0.545140896107846
0.437768734865857
0.296393136878914
0.142564005874659
-0.00165812734432243
-0.11801004491335
-0.195142533200704
-0.229922334398646
-0.226833379789896
-0.195879134558909
-0.149692485724764
-0.100629295685637
-0.0584834182751153
-0.0291932240852044
-0.0146083477422134
-0.0131333483677301
-0.0209129437311654
-0.0331841177050927
-0.0454748336143393
-0.0544406287432409
-0.0582590123210444
-0.0566144299700105
-0.0503829425496535
-0.0411584457480128
-0.0307557558102402
-0.0207927693479324
-0.0124097220115107
-0.00614191439952495
-0.00193140967489632
0.000754795507263168
0.00274026519666311
0.00492970757327984
0.00811379662472062
0.0128220953647607
0.0192487207581059
0.0272614635975069
0.0364873504092973
0.04644944010588
0.0567162303229216
0.0670215467327616
0.077321533261576
0.0877742611255278
0.0986506688032498
0.110205739397594
0.122549833139323
0.135558718000947
0.148847869285071
0.161816639131527
0.173747616532664
0.183932078938327
0.19178756080799
0.196938856948164
0.199247027605782
0.198787552503206
0.195792805219909
0.190580709766582
0.183489556677621
0.174831250759763
0.164866432084476
0.153798661201571
0.141782249016228
0.128938200600925
0.115373482024574
0.101199623734176
0.0865476738479151
0.0715778409896019
0.056483329310177
0.0414882411988396
0.0268391722302218
0.0127902324362619
-0.000417575160494163
-0.0125797849078722
-0.0235503704261267
-0.0332575066871363
-0.0417096052829316
-0.0489898451347275
-0.0552393007047693
-0.0606302367868933
-0.0653323178123314
-0.0694759747310464
-0.0731192982614542
-0.0762268966577613
-0.0786696093815144
-0.0802512708253435
-0.0807623363220108
-0.0800511663598959
-0.078094875310775
-0.0750468352389989
-0.0712407787130575
-0.0671429697010767
-0.0632609857095345
-0.0600337047744041
-0.0577351171827001
-0.0564208880126182
-0.0559328097262707
-0.0559582377250318
-0.0561259882485141
-0.0561114992309351
-0.0557236512189696
-0.0549524078156633
-0.0539677847805357
-0.0530732525076127
-0.0526272199848301
-0.0529524173868357
-0.0542539582666991
-0.0565631874299137
-0.059717699572539
-0.0633802233432731
-0.0670921464808727
-0.0703520437472379
-0.0727055770232329
-0.0738305769899042
-0.0736006890563687
-0.0721136909562372
-0.0696768873375872
-0.0667510293688186
-0.0638638909385992
-0.0615121534256507
-0.0600731328343984
-0.0597450569593372
-0.0605268922535926
-0.0622384702802789
-0.064571850779431
-0.0671582309051166
-0.0696330334118812
-0.0716852397853262
-0.0730839848758567
-0.0736832322306202
-0.0734114694254837
-0.0722562894376411
-0.0702530589812815
-0.0674829782935447
-0.0640797338482043
-0.060237593551527
-0.0562100231849356
-0.052289345323548
-0.0487652459203489
-0.0458704493623627
-0.043730489379104
-0.0423362656412409
-0.0415513478458264
-0.0411535927104838
-0.0408982829263533
-0.0405831066238549
-0.0400962881338074
-0.0394365879521941
-0.0387035724781846
-0.0380642183755409
-0.0377054801432466
-0.0377827570322365
-0.038373567961423
-0.0394455720078094
-0.0408475770875063
-0.0423293398004744
-0.043589598374877
-0.044343042805904
-0.0443892024080259
-0.0436635440355478
-0.0422556085567444
-0.0403893013608237
-0.0383719177706646
-0.0365263283820175
-0.0351228489896429
-0.0343247429333842
-0.0341565258338894
-0.0344991113469228
-0.035110928233946
-0.0356695050361518
-0.0358242081187431
-0.0352490813567598
-0.0336861659535826
-0.0309740864403053
-0.0270623103916248
-0.0220159105292755
-0.0160171355674755
-0.00936818757663803
-0.00249497473518384
0.00405425145003862
0.00962632761917076
0.01350898301226
0.0150134879963799
0.0135937181224524
0.00898891610433561
0.00136402575751222
-0.00859040873739782
-0.0196433288447644
-0.0301338761542726
-0.038229427485959
-0.0423176073194636
-0.0414726994622358
-0.0358907274415705
-0.0271571228582938
-0.0182120810403296
-0.0129213922163581
-0.0152442555813668
-0.0281016120133802
-0.052165055779897
-0.0848758094432639
-0.120031808720593
-0.148221384561506
-0.158224574532145
-0.139265473747873
-0.0837305940028461
0.010256352830589
0.137111764015376
0.283541852195174
0.430095691700413
0.554411397923869
0.635560946863323
0.658514805819692
0.617600458627516
0.518002848236656
0.37483648390192
0.209979816893708
0.047488764684935
-0.0912192602470661
-0.191221123383383
-0.246148784916533
-0.258178696975284
-0.236234642751741
-0.193086409963351
-0.142177694969032
-0.0949288434265959
-0.0590063078104834
-0.037731395175486
-0.0305093914514148
-0.0339602788252296
-0.0433498549729361
-0.0539467535469068
-0.0620349936446838
-0.0654513723208333
-0.0636520551118752
-0.0574134282741363
-0.0483241457862449
-0.0382291197897603
-0.0287542358189211
-0.0209903662051327
-0.0153631955401198
-0.0116724659098708
-0.0092554140714219
-0.00721514895354175
-0.00465421093779452
-0.000864096118295381
0.00456048259926681
0.0116928306237004
0.0203217364531853
0.0300516061530691
0.0404248430913985
0.0510368497366103
0.0616207207156471
0.0720882961001229
0.082523964484111
0.0931359453605461
0.104176549144766
0.115848338611385
0.128216765732102
0.14115020401939
0.154303525397891
0.167151187399284
0.179062714103534
0.189402032451672
0.197626442429432
0.203362470247913
0.206443102092552
0.206901211012899
0.204924655601289
0.200787242700293
0.194774649854075
0.18712430830479
0.177993032117327
0.167457162567766
0.155539999057592
0.142253876554104
0.127642105946348
0.111809362858087
0.0949356369926705
0.0772750511575015
0.0591441430886164
0.0409041460650941
0.0229399416682592
0.00563679833515265
-0.0106441447575588
-0.0255898755544474
-0.0389565357894921
-0.0505849869338089
-0.0604086899249131
-0.0684518648221327
-0.0748163434351334
-0.0796570377023402
-0.0831489874224698
-0.0854529802150805
-0.086689981389479
-0.0869345445479402
-0.0862322151545452
-0.084636560773006
-0.0822518806164415
-0.0792630054932081
-0.0759369064425471
-0.0725910225972566
-0.0695358441221637
-0.0670089952634965
-0.0651211873708361
-0.0638303928769099
-0.0629518039619651
-0.0622013121668961
-0.0612624258140334
-0.059862003786854
-0.0578388326767623
-0.0551904560936514
-0.0520874301553911
-0.0488499761220635
-0.0458893512654553
-0.043624357507932
-0.0423906397619291
-0.0423642734881644
-0.0435193015229855
-0.0456309928095608
-0.0483248866174533
-0.0511598685041283
-0.0537250233617786
-0.0557268436384156
-0.0570459789067978
-0.0577502810140508
-0.0580617144941232
-0.0582863912677914
-0.0587267334824305
-0.0595997931870484
-0.0609842076200912
-0.0628100841973974
-0.0648933093224978
-0.0670020079669968
-0.068932501736285
-0.0705689283961694
-0.0719064119030966
-0.0730307091702137
-0.0740628788864378
-0.075089857032487
-0.0761065670750537
-0.0769911670098908
-0.0775240313647706
-0.077446668162843
-0.0765432472507145
-0.0747189022243217
-0.0720485797249263
-0.0687789080908728
-0.0652810831344931
-0.0619695589761056
-0.0592124439314605
-0.0572602191898692
-0.056210105063718
-0.0560092512006476
-0.0564875514859382
-0.0574047870197732
-0.0584977408401776
-0.0595184816256444
-0.0602613603320496
-0.0605802561706569
-0.0603982463138512
-0.0597103874932358
-0.0585788310871504
-0.0571194649304557
-0.0554806691568187
-0.0538166411557362
-0.0522591619300719
-0.0508922994965913
-0.0497345249466041
-0.0487322243649081
-0.0477673806477456
-0.0466796994873344
-0.0452995585282538
-0.0434840743000202
-0.0411465594198646
-0.0382714123966985
-0.0349117581723867
-0.0311737137025544
-0.0271962840061849
-0.0231376989072676
-0.019176604605748
-0.0155299194663714
-0.0124795575309769
-0.010390626165176
-0.00969867664258467
-0.0108474872298745
-0.0141731921412263
-0.0197522449674819
-0.0272527981563105
-0.0358436442820961
-0.0442155783048668
-0.050753380326486
-0.0538624883912471
-0.0524074176707065
-0.0461694383105
-0.0361939496841586
-0.024888991705513
-0.0157661470883048
-0.0127850269044368
-0.0193625591972283
-0.0372181149262133
-0.0653181028011433
-0.0992304352930211
-0.13117587559042
-0.15095617150717
-0.147752458127668
-0.112550319578587
-0.040714607119384
0.0659201806775107
0.198089167095508
0.339734708986485
0.470358853645297
0.568753366341947
0.617338311062606
0.606071098394558
0.534894523806345
0.414013391804313
0.261856742827076
0.101225503175205
-0.045374318302618
-0.160028071718884
-0.232334831782784
-0.260409412282765
-0.249974025536375
-0.212021905726001
-0.159802324074713
-0.105904549204323
-0.0600493665061763
-0.0279161627711697
-0.0110351858302279
-0.00753414038576244
-0.0133892404030705
-0.0238020385116264
-0.034385434295646
-0.0419591919009791
-0.0448871797386269
-0.0430022599991668
-0.0372400457027201
-0.0291333347088646
-0.020310038750869
-0.012100898190669
-0.00531356712433244
-0.000179946524267682
0.00355594729139791
0.00646553475900844
0.0092396579714965
0.0125194921721423
0.0167848420127759
0.0223081716002958
0.0291650159115536
0.0372817515365967
0.0464999477017985
0.0566395596935605
0.0675474025107662
0.0791211076063956
0.0913032824116867
0.104047559300057
0.117267091924283
0.130783514961381
0.144296484405913
0.157388751068786
0.169570559746997
0.180353848947699
0.189336061530239
0.196269256664935
0.201094071294263
0.203928412729404
0.205013948557657
0.204635267886242
0.203033599142408
0.200337498552123
0.196527380787588
0.19144130817598
0.184818994739282
0.176372101830895
0.165863351166572
0.153175705340509
0.138356118785199
0.121625554256386
0.103356349505061
0.0840267009976256
0.0641668069843874
0.044310311347328
0.0249591321704585
0.00656283471821987
-0.0104913066196981
-0.0258832489529573
-0.0393651637959151
-0.0507695279294531
-0.060020736638013
-0.0671476971509842
-0.0722922660442583
-0.0757071224784144
-0.0777375423478238
-0.07878485314707
-0.079254592072677
-0.0794980873663434
-0.0797602109143322
-0.0801465240965733
-0.0806192878435157
-0.0810247682529013
-0.0811461007681092
-0.0807691665859908
-0.0797453559644952
-0.07803552392466
-0.0757237770445264
-0.0729973348246885
-0.0700982154608182
-0.0672612740264575
-0.064657713653545
-0.0623611627237764
-0.0603452369559064
-0.0585106445554028
-0.0567308363481159
-0.0549010470847673
-0.0529768184516703
-0.0509930927295161
-0.0490612669744657
-0.0473471639661751
-0.046036630356516
-0.0452971756680351
-0.0452439078092417
-0.045916346407004
-0.0472699757057059
-0.0491832050606731
-0.0514772713613826
-0.0539440404712669
-0.0563752830125956
-0.0585874797134084
-0.0604386070940023
-0.0618366265985033
-0.0627418925909228
-0.0631662778534077
-0.0631706038719034
-0.062860049895179
-0.0623758803340184
-0.0618818618363802
-0.0615451099752041
-0.0615131072026938
-0.0618904295073138
-0.0627197679539954
-0.0639718211649383
-0.0655472866765754
-0.0672914836870377
-0.0690188055233015
-0.0705415991641442
-0.071697466498448
-0.0723705663987859
-0.0725050240475085
-0.0721101645622123
-0.0712571308632356
-0.070065684044354
-0.0686809012501519
-0.0672431222559342
-0.0658590122005966
-0.0645833418829475
-0.0634177408884036
-0.062325640634745
-0.0612560820044568
-0.0601667744462795
-0.0590394448842323
-0.0578856156584026
-0.0567449642203914
-0.0556793133981984
-0.0547636596609163
-0.0540736753859015
-0.0536687141149797
-0.0535709302141806
-0.0537438463499179
-0.0540761883984815
-0.0543777219581746
-0.0543923182006394
-0.0538296403088735
-0.0524117819978383
-0.0499264832920394
-0.0462755552088975
-0.0415067453614983
-0.0358199136037916
-0.0295439570910786
-0.023088502881914
-0.0168821213925442
-0.0113141660277962
-0.00669767379230939
-0.00326435303921443
-0.00119014786976301
-0.000635109977810669
-0.00177073326548856
-0.0047675311706723
-0.00972780655670976
-0.0165705791865229
-0.0249008419421879
-0.0339153148340321
-0.0424035725498932
-0.0488909357716781
-0.0519361606360337
-0.0505472341472045
-0.0446240334669262
-0.0352943744021621
-0.0249983316521663
-0.0172074875758438
-0.0157423360429465
-0.0237598717163707
-0.0425999472360581
-0.0707720951338066
-0.103402913983914
-0.132423636583713
-0.147648635560939
-0.1386906035321
-0.0974150203641529
-0.0204167458069642
0.0891221181097761
0.220799401149613
0.357972698818766
0.480365756144476
0.56787221723721
0.604739366752668
0.58311072513495
0.504980431952708
0.381980143910027
0.23299356869005
0.0801975385464285
-0.055443964324652
-0.158101337296928
-0.219523622239053
-0.239588310979095
-0.225074118378385
-0.187197921752893
-0.138667451895319
-0.0909819253010695
-0.0525167256100972
-0.0276438875523204
-0.0168571455836425
-0.0176558942793228
-0.0258308323707562
-0.0367871718608625
-0.0466163716185667
-0.0527485262997288
-0.0541472748258268
-0.0511170707004601
-0.0448605917619071
-0.0369465320029431
-0.0288303879846638
-0.0215257281301059
-0.0154665955026302
-0.010548215622057
-0.0062942407665679
-0.00207989051829812
0.00265846605231783
0.00827957546859953
0.0148849996296834
0.0223550878052634
0.0304465127325407
0.0389117640297279
0.0476009229451977
0.0565171760281203
0.0658150889932845
0.0757483928491418
0.0865864147715315
0.0985226469461041
0.111596314073296
0.125641711801513
0.140273976279508
0.154914984672901
0.168858171545002
0.181364716471084
0.191776006584381
0.199620741448583
0.204692563877808
0.207077815051421
0.207123068464695
0.205346373235537
0.202310753925766
0.198489040250258
0.19415216862603
0.189307701830572
0.183703070999196
0.176892405536965
0.168350847019169
0.157609579481723
0.144380880450531
0.128645934650284
0.110687612478254
0.0910631391591381
0.0705244422138382
0.0499043480266155
0.0299929523388407
0.0114295397096958
-0.0053686964374416
-0.0202284634662298
-0.0331914957879968
-0.0444456124812971
-0.0542354676915021
-0.0627766213875267
-0.0701941339280233
-0.0764991353807936
-0.081606050635179
-0.0853821360501357
-0.0877124579203372
-0.0885598890822799
-0.0880025048118244
-0.0862390956732919
-0.08356413559893
-0.0803222753686517
-0.0768564219650602
-0.0734623776585806
-0.0703585027893265
-0.0676732408511253
-0.0654485627671744
-0.0636546308020753
-0.0622105098343639
-0.0610069486212989
-0.0599289653836414
-0.0588770724993396
-0.057785889664654
-0.0566378940753443
-0.0554691714739063
-0.0543645179852146
-0.053441710855554
-0.0528284722431752
-0.0526386073739263
-0.0529539681671269
-0.0538157560196462
-0.0552238951075426
-0.0571396751008641
-0.0594867857610959
-0.0621493222353216
-0.0649702667763604
-0.0677573342632077
-0.0703024626516731
-0.072416032670584
-0.0739690027110313
-0.0749294316326975
-0.0753782998687798
-0.0754947571656316
-0.0755111217985479
-0.0756489930286576
-0.0760554396716171
-0.0767595964739664
-0.0776644041252631
-0.0785771524967985
-0.0792695153921397
-0.0795476219117733
-0.0793093624924824
-0.0785709789346899
-0.0774562080825435
-0.0761544556446376
-0.0748644640362524
-0.0737429697946426
-0.072873418455229
-0.0722606392265297
-0.071847671837996
-0.0715442980377113
-0.0712551857803803
-0.070898898218505
-0.0704154754585615
-0.0697666097629868
-0.0689353356169261
-0.0679301790477199
-0.0667931795291622
-0.0656055395041727
-0.0644824596719701
-0.0635517122612787
-0.0629175606329115
-0.0626193675090429
-0.0625988890406301
-0.0626896028471696
-0.0626355074625642
-0.0621375423869265
-0.0609161266619703
-0.0587718331387234
-0.0556259707019913
-0.0515298613795416
-0.0466436493636654
-0.0411975713195282
-0.0354552617033539
-0.0296965531369679
-0.0242267469742629
-0.0194043737016916
-0.0156659877343844
-0.0135204711181246
-0.0134904298447483
-0.0159945878024678
-0.0211885038866074
-0.0288043370608309
-0.0380458802593095
-0.0475962995208256
-0.0557795277826217
-0.0608823558195037
-0.0615975798685283
-0.0574986336344507
-0.0494166814309895
-0.0395772914533793
-0.0313776042388592
-0.028750925317605
-0.0351676716273622
-0.0524409429668848
-0.0796118198912405
-0.112248353672719
-0.142471836717409
-0.159908217131978
-0.153559092950172
-0.114330957771053
-0.0377142548774374
0.0740583920062533
0.211051019164593
0.356345002187481
0.488552264737208
0.585753911162051
0.630045974373502
0.611596904471891
0.53113594078091
0.40013630818956
0.238559065070419
0.0707022249164295
-0.0797737570271841
-0.194381835040442
-0.262841159779346
-0.28403486234812
-0.264918662927768
-0.217913347939443
-0.157600078079096
-0.0975645823488064
-0.0480484318337723
-0.0147548474461923
0.00117377690704936
0.00225435854061208
-0.00676433395592211
-0.0204310786765212
-0.0338755522412029
-0.0436344193168803
-0.0479607867570354
-0.0466862786167403
-0.0407866206185478
-0.0318288688572928
-0.0214579398218723
-0.0110278828649671
-0.00141921067508675
0.00697394463449654
0.0141410258652969
0.0203039029462353
0.0257757180385039
0.0308654097068191
0.0358376508926972
0.0409171748034149
0.0463152901449439
0.0522551296467145
0.0589785078390847
0.0667276984092407
0.0757063403071434
0.0860319521989066
0.0976961455515317
0.110546865635955
0.12430048921736
0.138582272507687
0.152984387872579
0.167124788460407
0.180689653387856
0.193447544357784
0.205232894577083
0.21590677513456
0.225310305556955
0.233227822115045
0.239372578132045
0.243399593308815
0.244941867083089
0.243660355544363
0.239295938102587
0.231712681484518
0.220924939121361
0.207104869248801
0.190570688851177
0.171758867336951
0.151185494096763
0.129403283976897
0.106960939743014
0.0843705928249027
0.0620867163444049
0.0404966313589627
0.0199195066096293
0.000609021194547046
-0.0172442818636729
-0.0335117509514837
-0.0481237298426954
-0.0610607801704989
-0.0723367167597351
-0.0819756565500277
-0.0899899103432453
-0.0963675983066344
-0.101076879440106
-0.104088193323106
-0.105409131071216
-0.105121181425035
-0.103405637682402
-0.100548151064429
-0.0969172614711705
-0.0929200761477914
-0.0889455810475541
-0.0853101916013559
-0.0822193926864506
-0.0797538971937793
-0.0778808534736072
-0.076483499819392
-0.0753990992588031
-0.0744558815135212
-0.0735035111372305
-0.0724353690830189
-0.0712025920375681
-0.0698195148847877
-0.0683595890180002
-0.066941386696552
-0.0657061329609014
-0.0647907103374299
-0.0643022985431923
-0.0643015035738508
-0.0647988971828885
-0.0657653498498104
-0.0671510633991511
-0.0689043774142249
-0.0709812908013252
-0.0733406145911664
-0.0759262536715454
-0.0786444979700248
-0.0813475479824604
-0.0838333063371877
-0.0858662513588671
-0.0872170830054332
-0.0877123521481923
-0.0872813338125421
-0.0859867854315116
-0.0840290336777217
-0.0817188866685902
-0.0794234305968758
-0.077497631778031
-0.0762200851596604
-0.075749876653211
-0.0761132348564268
-0.0772174619375895
-0.0788812987883297
-0.080869036537712
-0.0829198960832423
-0.0847709338126791
-0.0861768767829122
-0.0869312952467162
-0.0868904300121758
-0.0859961260568222
-0.0842907270571367
-0.0819164144693714
-0.0790944937300594
-0.0760855136158504
-0.0731373161625192
-0.0704331279328522
-0.0680533308051572
-0.0659612628354739
-0.0640161873363774
-0.0620083347583452
-0.0597049751494811
-0.0568949012172295
-0.053421623099558
-0.049201342756647
-0.0442278174034211
-0.0385702889500616
-0.0323716817665522
-0.0258522719256193
-0.0193195181425377
-0.0131785880809355
-0.00793202709153441
-0.00415376836411002
-0.00242518377452763
-0.00323039697811307
-0.00682293021057752
-0.0130915574326906
-0.0214646832977476
-0.030895319702189
-0.0399603367719613
-0.0470875994995061
-0.0508943213271578
-0.0505835442813577
-0.0463105558512441
-0.0394078497956005
-0.0323574368088076
-0.0284316399520693
-0.0309899400693778
-0.0425122312217629
-0.0635496850279173
-0.0918564141661398
-0.12199798492811
-0.145690676151015
-0.152996057703584
-0.134289788213563
-0.0826813756914375
0.0036505317427634
0.119847440863859
0.25406059645864
0.388765564638686
0.503631476673476
0.579433261104
0.602136698158089
0.566135036918297
0.475751277059279
0.344537545649818
0.192495357854378
0.0419203789381728
-0.0870568905275696
-0.180131432403787
-0.23087992588017
-0.240908520292892
-0.218309685136996
-0.175029867097267
-0.123911387345769
-0.0761105671876356
-0.0393721852925097
-0.0173497080519913
-0.00988898955787071
-0.0140015505747263
-0.0251680468117294
-0.0386268398540161
-0.0503885714781378
-0.0578380211684657
-0.0599040875671342
-0.0568719887112632
-0.0499660239864146
-0.0408455815204081
-0.0311390323411615
-0.0221016740585553
-0.0144377419203826
-0.00828357261316557
-0.00331675998916794
0.00106168241695848
0.00552820897195001
0.0106675899583449
0.0168637910946185
0.0242615473477491
0.0327916630117154
0.0422402036555878
0.0523353824726046
0.0628265965457002
0.0735367511974939
0.0843792972423908
0.0953421919845913
0.106449485691298
0.117715587096923
0.129106856472153
0.140520714347143
0.151785754323513
0.162679703917555
0.17295744870764
0.18237974087514
0.190734479149087
0.197845444741559
0.203566849240188
0.207765495039334
0.210295972658653
0.210977903667399
0.209586263002825
0.205864163525859
0.199561286766013
0.190491999079556
0.178598703581351
0.164001966961859
0.147021510041538
0.128160487815617
0.10805628541479
0.0874100649107088
0.066911360537839
0.0471724266883452
0.0286815704156316
0.0117784485250272
-0.00335006883672853
-0.0166565978554893
-0.0282059463213815
-0.03813798923098
-0.0466266055345951
-0.0538420577581121
-0.0599236598402905
-0.0649665533870043
-0.0690223095614604
-0.0721099352168031
-0.0742327650526697
-0.0753972857037243
-0.0756309986962254
-0.0749970158478326
-0.0736029803536812
-0.0716016773553034
-0.0691812891110046
-0.06654537355239
-0.0638860765915368
-0.0613573920811106
-0.0590564716248499
-0.0570189033627723
-0.0552292150427479
-0.0536428154388345
-0.0522124185672282
-0.0509116333559464
-0.0497502196564985
-0.04877812414451
-0.0480777592216181
-0.047745909489125
-0.0478685807735989
-0.0484942732185778
-0.0496129652464754
-0.0511482244713051
-0.0529671406070811
-0.0549073013682357
-0.0568137048086024
-0.0585742664301833
-0.0601426955000896
-0.0615420692028092
-0.0628492171601538
-0.0641659123509509
-0.0655857144970877
-0.0671650168712744
-0.0689047034996746
-0.0707460795620416
-0.0725818397793105
-0.0742798689833575
-0.0757149843398773
-0.0768019008272712
-0.0775220756918424
-0.0779377120580065
-0.0781880663764672
-0.0784662585221701
-0.0789787171744393
-0.0798935934170169
-0.0812882169746176
-0.0831081814115622
-0.0851509716405497
-0.0870841265076233
-0.0885011715691321
-0.0890086096768749
-0.0883263843937153
-0.0863760151602568
-0.0833289030009789
-0.0795945639937546
-0.0757440328742592
-0.0723829294780086
-0.0700050761504233
-0.068865290292513
-0.06890646815181
-0.0697624896604033
-0.0708387292609444
-0.0714512763034585
-0.070989620895318
-0.0690599321385252
-0.0655699117056122
-0.0607318633428064
-0.0549849337031916
-0.0488634631710894
-0.0428567917334553
-0.0373089148382145
-0.0323916818826147
-0.0281573501773772
-0.0246451602067418
-0.021993638824381
-0.0205043374845265
-0.0206166087977256
-0.0227829975229099
-0.0272718731736624
-0.0339568513453496
-0.0421707748477584
-0.0506979585802013
-0.0579496076187762
-0.0623182046652711
-0.0626484070812564
-0.0587101207220574
-0.051529879535655
-0.0434417378720412
-0.0377638531708606
-0.0380880337530644
-0.0472734685176759
-0.0663409764012697
-0.0935432222425919
-0.123911707092814
-0.149531738412652
-0.160665191632851
-0.147641793007447
-0.103210931302487
-0.0248466311230187
0.0836035751808997
0.211483338460713
0.342438044416659
0.457038783347434
0.536469329268584
0.566473398848139
0.540591567815283
0.461814766837738
0.342151318042383
0.20015840129899
0.0570558027197885
-0.0675741544129905
-0.159424747713573
-0.211619404533323
-0.225031114054032
-0.206927348408218
-0.168494473959271
-0.121977399609425
-0.0781311676352027
-0.0444774146891883
-0.0245779067034928
-0.0182665099083174
-0.0225832420367384
-0.0330591354730955
-0.0450059263906217
-0.0545441931640371
-0.0592209084656677
-0.0581870198383758
-0.0520016095027294
-0.0421880699063711
-0.0306878802443055
-0.019345357037796
-0.00952243690541395
-0.00189696804692934
0.00354917616316987
0.00738645717209176
0.0105003193513526
0.013832069817569
0.0181619120905482
0.0239756905227013
0.0314279982886246
0.0403879686524391
0.0505371462913401
0.0614837106740271
0.0728622857844151
0.0843997064526596
0.0959401195651489
0.107434094536171
0.118903710678637
0.130398044021185
0.141951544340545
0.153552988375802
0.165127315383772
0.1765289887195
0.187544581217659
0.197903101055977
0.207293219943123
0.215385926441662
0.221859717853618
0.22642452861954
0.228840895134145
0.228932202717588
0.226589658000916
0.221771298442535
0.21449741334543
0.204844905418413
0.192942386925528
0.178966536986507
0.163139011588874
0.14572259417752
0.127015645801588
0.107344991042751
0.0870583084835817
0.0665170958772086
0.0460903192498941
0.026147680062589
0.00705098194976706
-0.0108571748472087
-0.0272665380413246
-0.0419119659828358
-0.0545835750447124
-0.0651336699167163
-0.0734820459648456
-0.0796222193576009
-0.0836297605183399
-0.0856706420036523
-0.0860041980509254
-0.0849740913813962
-0.0829828992238956
-0.080451191186194
-0.0777681724959794
-0.0752452581014127
-0.0730842773570664
-0.0713681658741287
-0.0700755154645903
-0.0691136911692791
-0.0683607604788741
-0.0677055081283904
-0.0670769555613229
-0.066458453981498
-0.0658850822146609
-0.0654263825602054
-0.0651596695802188
-0.0651418522255165
-0.0653885492914338
-0.0658671163509919
-0.0665054801046631
-0.0672133650163066
-0.0679087722470407
-0.068541544255437
-0.0691073249302258
-0.069648295315476
-0.0702407555166042
-0.0709731261839548
-0.0719205338638051
-0.0731231457599706
-0.0745743912490642
-0.0762222542243828
-0.0779827361793368
-0.0797606797105203
-0.0814708010464976
-0.0830519980744907
-0.0844708940572579
-0.0857151300464099
-0.0867812223607628
-0.0876638842273608
-0.0883525597027941
-0.0888370454346825
-0.0891192662070423
-0.0892247234088531
-0.0892065408186156
-0.0891378912898062
-0.0890938512918021
-0.0891289842972128
-0.089259465704165
-0.0894568411433305
-0.0896553467736386
-0.089768844321285
-0.0897099021452916
-0.0894039653789497
-0.0887951661541137
-0.0878447306120807
-0.0865256625052156
-0.0848173296776289
-0.0827015723810637
-0.0801600125084962
-0.0771720385987822
-0.0737145473763254
-0.0697665397614724
-0.0653224905414468
-0.0604172390750522
-0.0551618767850548
-0.0497848071837162
-0.0446654166609507
-0.040341755941122
-0.0374720976835714
-0.036736898252663
-0.0386835159153993
-0.0435378928869976
-0.0510288106670645
-0.0602834606918034
-0.0698511076795811
-0.077891026552727
-0.0825232785848564
-0.0822935153698631
-0.0766573610449735
-0.0663588850237146
-0.0535721448714261
-0.0417011183049567
-0.0347921741151068
-0.0365990867969406
-0.0494413159812529
-0.073092097227708
-0.10399718259474
-0.135128783649534
-0.156699594878636
-0.157792897291634
-0.128727247035767
-0.0637190095951488
0.0367918092433768
0.164846473579341
0.305260841033369
0.437728087777493
0.540479554667463
0.594770600723237
0.589121779711949
0.522188985279367
0.4034207817088
0.251235122673736
0.0891427144136748
-0.0591734727235821
-0.174548130161529
-0.245654179335188
-0.270279181875045
-0.25449087131148
-0.210169657243444
-0.151717218830151
-0.0928145184092774
-0.0439351937880303
-0.0110124381335424
0.00468372182211704
0.00568547614999427
-0.00312019004076775
-0.0160860134672009
-0.0281736535586388
-0.0358606877754454
-0.0375051347743592
-0.0332235245510479
-0.0244280987093546
-0.0132036201487672
-0.00169206614631063
0.00838984744889592
0.0160325316508567
0.0210035568811787
0.0237401431828523
0.0251265838237292
0.0262280176492256
0.0280440854790818
0.0313270553842545
0.036485995478602
0.0435774716333002
0.0523674688135876
0.0624396829307225
0.0733215545022373
0.08460065384336
0.0960093654361873
0.107463955782042
0.119053535522671
0.130983875252761
0.143489496969608
0.156733804003663
0.170719906186233
0.185233188834032
0.199830240425403
0.213878189678964
0.226635893885078
0.237357326594498
0.245391913048109
0.250258847422818
0.251681894751969
0.249584190012871
0.244054162834178
0.235299853532933
0.223607921627585
0.209316844483378
0.192804510566816
0.174482635267907
0.154787430593732
0.134159105796523
0.113010711789899
0.0916955947799975
0.0704873352333043
0.0495833234721451
0.0291337866093468
0.00928664823284615
-0.00976914403127048
-0.027779474297624
-0.044430711453698
-0.0593849443927384
-0.0723346537222005
-0.0830611380405483
-0.0914809859487853
-0.0976693418122721
-0.101855508639945
-0.104393253647305
-0.105713158185752
-0.106266504323774
-0.106469703564158
-0.1066562655492
-0.107041088646878
-0.107700244580697
-0.108568507035996
-0.109456139744645
-0.110085143147835
-0.110142629069658
-0.109345196015043
-0.107503879819686
-0.104575970883527
-0.100689665314585
-0.0961318093491278
-0.0912979917931016
-0.0866153969814697
-0.0824576301422893
-0.0790732243563325
-0.0765448485517248
-0.0747868051989939
-0.0735781494274248
-0.0726209222146329
-0.0716091162955447
-0.0702939785318724
-0.0685338940206935
-0.066320904016998
-0.0637799061353428
-0.0611406222157186
-0.0586867816327195
-0.0566916655561581
-0.0553534309303643
-0.0547459174532753
-0.0547990820251767
-0.0553167204646385
-0.056028593293442
-0.0566626951563831
-0.0570157737008136
-0.0570001110057175
-0.0566528754166967
-0.0561080084884083
-0.0555438675910134
-0.0551270720814701
-0.0549716583911531
-0.0551243038024136
-0.0555752753890768
-0.0562854163467158
-0.057215019208039
-0.058341918377624
-0.059662364891536
-0.0611761678676485
-0.0628637432278828
-0.0646650597729541
-0.0664690721247788
-0.068118409714808
-0.0694293170906611
-0.0702223008742343
-0.0703555923893942
-0.0697520550734842
-0.0684109280502588
-0.0663991404891073
-0.0638231038473803
-0.0607901229680486
-0.0573760546650697
-0.053618188331304
-0.0495459167486802
-0.0452466131655992
-0.0409450799049472
-0.0370602682258982
-0.0342008273048044
-0.0330752277832658
-0.0343196682751247
-0.0382787314087006
-0.0447989178140978
-0.05310532028499
-0.0618229145003898
-0.0691765852182226
-0.0733619062793234
-0.0730291462347397
-0.0677767130307133
-0.0585200378333635
-0.0475994871748236
-0.0385235340506595
-0.0353113011515985
-0.0414938282260812
-0.0589400723347636
-0.0867683225651125
-0.120657615258333
-0.152858184423211
-0.173095915758113
-0.170374942075603
-0.135435496212873
-0.0633803147644453
0.0441805629719566
0.178126952606064
0.322444634332816
0.456576492784365
0.559165236283015
0.612411958469174
0.606008509574853
0.539610412531525
0.423137569444014
0.274755723377724
0.117034956787739
-0.027714009097586
-0.141734715499475
-0.214738662917402
-0.244886234923812
-0.23784776653589
-0.204438635428929
-0.157593537111596
-0.109470189420434
-0.0692940640322117
-0.0422624591808998
-0.0295177190149378
-0.0289562136611495
-0.0365065921469495
-0.0474935680542026
-0.0577772943922465
-0.0644828273889382
-0.0662682101324059
-0.063191691593579
-0.0563102615218049
-0.0471676177502237
-0.037314831924363
-0.0279634917080412
-0.019814846679704
-0.0130553280825997
-0.00747101298746646
-0.00261725037287
0.00201603777268236
0.00688415224075813
0.0123288682227083
0.0185754770987732
0.0257655740134178
0.0340005203146616
0.0433736523203105
0.0539778941068545
0.0658863129612078
0.0791132901878787
0.0935707770929636
0.109035958296905
0.125143388338234
0.141407550193902
0.157272992679885
0.172181284791768
0.185639282940542
0.197273025735366
0.206855865378039
0.214306607397513
0.219660953515439
0.223025122895941
0.224523093116023
0.224248861357365
0.222233554479164
0.218434624758958
0.212750289864958
0.205056383032275
0.195255967337761
0.183327265728004
0.169355540334177
0.153540183386041
0.136177112846366
0.117624603426497
0.0982646324536639
0.078470756743086
0.0585890295729651
0.0389332447391678
0.0197918854142452
0.0014419060599885
-0.015836814236378
-0.0317532149489584
-0.0460094431861516
-0.0583218994041472
-0.0684581420983379
-0.0762824757491647
-0.0817972946519836
-0.0851652185656027
-0.0867009624506172
-0.0868310265367915
-0.0860297959156499
-0.0847477974017877
-0.0833491435779432
-0.0820713307684516
-0.0810141754272029
-0.0801580637326851
-0.0794057088997922
-0.0786363917214197
-0.0777580265083752
-0.0767422125394228
-0.0756322437927786
-0.0745231968153078
-0.0735233255125749
-0.0727125818229025
-0.0721141452270136
-0.0716885278005079
-0.0713502518246193
-0.070998721017161
-0.0705512761216704
-0.0699684134608096
-0.0692665656919243
-0.0685189687563736
-0.067847286679082
-0.0674059156831246
-0.0673595352233423
-0.0678548684295344
-0.0689903112025885
-0.0707904977119062
-0.0731943102028567
-0.0760622947772156
-0.0792031090301117
-0.0824111939248539
-0.0855030721248034
-0.0883400971267445
-0.0908311088941179
-0.092916881240709
-0.0945459167288951
-0.0956548649413947
-0.0961649820456331
-0.0959991461864317
-0.0951145396869659
-0.0935379277013161
-0.0913871014366054
-0.0888654941115227
-0.0862264062716381
-0.0837150335869835
-0.0815055990444501
-0.0796534793901827
-0.0780773467275499
-0.0765762784124347
-0.0748757358197781
-0.0726884737616205
-0.0697742029870534
-0.065984923581686
-0.0612889008295799
-0.0557724002486839
-0.0496228144935455
-0.0430996161603818
-0.0365013139831207
-0.030137338381835
-0.0243124942461803
-0.019327028224747
-0.0154876336909416
-0.0131164579927424
-0.0125406039886301
-0.0140472819922894
-0.0178004593112215
-0.0237311554793725
-0.0314307998215325
-0.0400896247247376
-0.0485242097046818
-0.0553258216533642
-0.0591335587226275
-0.0589980210885919
-0.0547613782421913
-0.0473496433801436
-0.038863591016358
-0.0323740622612478
-0.0313784069655855
-0.0389536395578628
-0.0567363992346183
-0.0839495023178781
-0.116752996496885
-0.148196338788536
-0.168967078717794
-0.168967159033257
-0.139523810298968
-0.0758100694595928
0.0211170987763512
0.143282738543329
0.276233898712595
0.401099764612246
0.497991398551178
0.550047360966577
0.547163162241908
0.488426144961813
0.382554741419755
0.246157618900471
0.100232606898869
-0.0341848229663613
-0.140108840740987
-0.207453336268566
-0.234088720004229
-0.225078092778773
-0.190527827286827
-0.142758883926523
-0.0935447096496858
-0.0520052870718701
-0.0234772423995493
-0.0093908392974681
-0.00795327178418994
-0.0153075081036909
-0.0268135654284438
-0.0381618196222028
-0.0461381198541632
-0.0489797369005961
-0.0463601798824611
-0.0391035834809878
-0.028752993159099
-0.0171091203106277
-0.0058296087035423
0.00385470729868179
0.0112831082729909
0.0163732192704591
0.0195219572852146
0.0214410053396001
0.0229726485367756
0.0249259556096735
0.0279599358976715
0.0325236012929718
0.0388475326319875
0.0469714683074704
0.0567894590710876
0.0680974391698223
0.0806344272575175
0.0941140606462081
0.108245588895121
0.122743597800837
0.137326139587192
0.151703342563785
0.165562420237145
0.178558040308695
0.190316945582815
0.200461661030063
0.208651181633168
0.214629294469313
0.21826647284855
0.219581024334444
0.218729857774285
0.215967737033451
0.211583606894113
0.205830104873217
0.198864874282012
0.190718843197417
0.18129860653366
0.170420417098792
0.157865405955662
0.143441978698969
0.127042463031515
0.108685533943581
0.0885411059188073
0.0669380213654022
0.0443560987937983
0.0214034152508029
-0.00122156852507858
-0.0227836062968847
-0.0425783178001085
-0.0600074921396201
-0.0746501068190265
-0.0863137122552593
-0.0950521439769523
-0.101142282807903
-0.105023026609484
-0.107210127361473
-0.108207037231619
-0.108431806021643
-0.108173727479948
-0.107584087429189
-0.106697163940378
-0.105472983194801
-0.103851840781991
-0.101810245790846
-0.0994073158574804
-0.096810240286995
-0.0942892156632003
-0.0921779373622489
-0.0908048813542601
-0.0904103063765638
-0.091070236897571
-0.0926490211755267
-0.0947962612215798
-0.0969938710460038
-0.0986473361622542
-0.0992043164245463
-0.0982756897992886
-0.095731077577249
-0.0917445053767307
-0.086776279839644
-0.0814921053762177
-0.0766356606848161
-0.0728818634128936
-0.0707021733653503
-0.0702702381251076
-0.0714273940824833
-0.073715063741339
-0.0764672125890019
-0.078943350349172
-0.0804738844884046
-0.0805872463076083
-0.0790929851591252
-0.076105857043768
-0.072009826528681
-0.0673739054594625
-0.0628404837891709
-0.0590096854731746
-0.0563406754599908
-0.0550843750639498
-0.0552539381820756
-0.0566319977275893
-0.0588089102757949
-0.0612442896507858
-0.0633438051216377
-0.0645429669381568
-0.0643886474711382
-0.0626075840398958
-0.0591500576227278
-0.0541980293258885
-0.0481320707144843
-0.0414608617142238
-0.0347284919894323
-0.0284236668660481
-0.0229166667421982
-0.018442528465369
-0.015133880582189
-0.0130886705247303
-0.0124428837445131
-0.0134122736701723
-0.0162736362561392
-0.0212746571344066
-0.0284869427333048
-0.0376419748371938
-0.048006602500416
-0.0583572929335497
-0.0670977779117756
-0.0725338504385092
-0.0732767919002832
-0.0687016275892232
-0.0593487581949525
-0.047138698103756
-0.0352794911736882
-0.0277911014963267
-0.0286505776960342
-0.0406665481286872
-0.0643009191159921
-0.0967394871168841
-0.131538650505076
-0.159116286157716
-0.168201424343979
-0.148124690069918
-0.091564271040411
0.00286777759729639
0.128922489516822
0.272535246653055
0.413516390836767
0.528993511065726
0.597973489412521
0.605983155456433
0.548593972345691
0.432829076284833
0.275973885635224
0.102023797529738
-0.0633267973730186
-0.197855084739234
-0.286855797957189
-0.325177024933172
-0.316977496819577
-0.273552378937931
-0.210004796963454
-0.141695086826762
-0.0812891207092096
-0.0369338112891032
-0.0117257354959791
-0.00431341050556336
-0.0102566042696542
-0.023684536261025
-0.0388362408324828
-0.0511912034826592
-0.0580569948544684
-0.0586283972113487
-0.0536396006421157
-0.0447852555738398
-0.0340902368717585
-0.0233741109641098
-0.013900743312815
-0.00624239695851946
-0.000334437092097688
0.00433954949216306
0.00850761520813169
0.0128844777188033
0.0180112856822208
0.0241817368016328
0.0314495981807501
0.0396941780623017
0.0487125969202284
0.0583096610368486
0.0683642049094845
0.0788608349272362
0.089884979051716
0.101585830220392
0.11411662886625
0.127565574950212
0.141893297890409
0.156892828064628
0.172183925257854
0.187245450933076
0.201479365518769
0.214291231951736
0.225167674294621
0.233732319047054
0.239767869476975
0.243201397007116
0.244060126350784
0.242413070761632
0.238317404118658
0.231786254218977
0.222787218937988
0.211270627565435
0.197216903554582
0.180686908175085
0.1618598121921
0.141048978955414
0.118694309897125
0.0953359067685434
0.0715767123853582
0.0480410729612799
0.0253334707345234
0.00399912945319692
-0.015512439152167
-0.0328781988850609
-0.047921368243855
-0.0606140402213107
-0.071059072878817
-0.0794534343063398
-0.0860415916735315
-0.0910713007319589
-0.0947629924960148
-0.0972979463185916
-0.0988223292890252
-0.0994581908274744
-0.0993119014490092
-0.0984754511911378
-0.0970232292643166
-0.0950117852076744
-0.0924895157807007
-0.0895174319194192
-0.0861944451227248
-0.0826754658015741
-0.0791711680629915
-0.0759246074139558
-0.0731690623771608
-0.0710793494304978
-0.0697321531888433
-0.0690885355437401
-0.0690049599202206
-0.069270526445478
-0.069660419136203
-0.0699908075211289
-0.0701597234590608
-0.0701621528167147
-0.0700752953970579
-0.0700198476372283
-0.0701119049772159
-0.0704237216432499
-0.0709676415589802
-0.0717070508016831
-0.0725859440990607
-0.0735608406046328
-0.0746193456471603
-0.0757779014443613
-0.077062203032887
-0.0784814762926498
-0.0800091411072096
-0.0815780103979782
-0.0830912074231592
-0.0844437802793579
-0.085546810797418
-0.0863462592050963
-0.0868318643803875
-0.0870352688260549
-0.0870194811003354
-0.086863039751605
-0.0866419979118164
-0.0864119846510574
-0.0861921038759323
-0.0859526805121665
-0.0856093206734395
-0.0850255251488303
-0.0840248378480898
-0.0824116697175909
-0.0799981872849441
-0.0766333676772913
-0.0722296943028547
-0.0667833505444902
-0.0603855106920276
-0.0532251729950318
-0.0455867134774268
-0.03784615219566
-0.0304676379838115
-0.0239961210239323
-0.0190360382144629
-0.0162029251945212
-0.016038414349549
-0.0188897875417125
-0.0247708704732522
-0.0332372828698345
-0.0433206765655558
-0.0535682654275332
-0.0622212862879865
-0.0675373458840762
-0.0682198148346167
-0.0638710083074768
-0.0553481426572918
-0.0448871584717403
-0.0358817842254387
-0.0322681316804881
-0.0375618509034848
-0.0537068897325496
-0.0799945642485328
-0.112367447918863
-0.143406366971098
-0.163194249482408
-0.161061855461626
-0.127978337021419
-0.0591118090476525
0.0440737600321448
0.172828708410504
0.311700234200895
0.440802723032947
0.539445342042124
0.590365664807995
0.583556913071766
0.518681771510135
0.405375104591456
0.261287962291725
0.10835313084998
-0.0317535514297392
-0.141794418904611
-0.211805658305859
-0.240049713089678
-0.232098295325092
-0.198528635214615
-0.151978089187123
-0.104324216104771
-0.0645825172579827
-0.0378303737974953
-0.0251693344266949
-0.0245046116362568
-0.0317914421272052
-0.0423778329581353
-0.0521396962162995
-0.0582208281350936
-0.0593185816049131
-0.0555659946738379
-0.0481340443729907
-0.0387073956847
-0.0289775809291625
-0.0202598962391617
-0.0132884470899037
-0.00819155065013053
-0.0046083448466544
-0.00188396437883505
0.000722967050736451
0.00387327251163278
0.00804919233408219
0.0135277117729534
0.0204072229058665
0.0286601568272759
0.0381862646864343
0.0488507635070672
0.0605028674081719
0.0729786744655999
0.0860961283622728
0.0996494863884442
0.113408155705695
0.127121499362787
0.140528321224999
0.153367970846784
0.165389894746639
0.176359939556908
0.186063856094633
0.194309878440303
0.200932060290586
0.205794483300373
0.20879470810599
0.20986421606914
0.208964546163723
0.206079641296983
0.201206330803946
0.194345328393566
0.185495211230309
0.174652312921448
0.161819874906297
0.147028687766608
0.130367992675761
0.112020690828227
0.0922932881126642
0.0716303288506977
0.0506055862776679
0.0298869650436946
0.0101775996969614
-0.00785912097879892
-0.0236787949260291
-0.0369255247170101
-0.0474780283791469
-0.0554617739840508
-0.0612223567590779
-0.065262981831912
-0.0681568435583095
-0.0704513091839385
-0.0725831443451223
-0.0748215264548289
-0.0772487261294566
-0.0797789957413508
-0.0822071883327008
-0.0842727189238146
-0.0857233621293419
-0.0863668610601909
-0.0861043175925087
-0.0849448526040605
-0.0830037840565974
-0.0804863289485006
-0.0776575005048944
-0.0747991581992866
-0.0721585911022817
-0.0698985626769707
-0.0680631640021119
-0.0665734262043978
-0.0652596128620697
-0.0639249809279283
-0.0624231894259717
-0.0607241170823258
-0.058944503618682
-0.0573306140046378
-0.0561961485210469
-0.0558338031230238
-0.056427646715592
-0.0579930296401166
-0.0603618593815106
-0.0632172689902808
-0.0661674062203416
-0.0688372120993467
-0.0709523614153123
-0.0723922380630879
-0.0731982884568007
-0.0735376569834494
-0.0736354981590133
-0.0736984752672005
-0.0738537197350078
-0.0741213516168739
-0.0744267159053084
-0.0746450681526188
-0.0746612715485833
-0.0744233142112845
-0.0739717088757683
-0.0734354226486764
-0.0729958813620753
-0.0728303482112953
-0.0730517043969196
-0.0736620469948266
-0.0745331585802774
-0.0754196286133012
-0.0760022671444029
-0.075952116707157
-0.0750000796996415
-0.0729949235742108
-0.0699340678905339
-0.0659576338293041
-0.0613062472079846
-0.0562547416119863
-0.0510433218198464
-0.0458308912823239
-0.0406898289206735
-0.0356481442101118
-0.0307672774406385
-0.0262276186488602
-0.0223852740651799
-0.0197669512413653
-0.0189853699482232
-0.020581377028295
-0.0248243878807777
-0.0315231298650167
-0.0399084577345283
-0.0486454265732706
-0.0560109021046465
-0.0602366001851396
-0.0599704723118274
-0.0547615021833161
-0.0454379070218396
-0.0342407510930355
-0.0246039626882945
-0.0205387192743989
-0.0256756754761583
-0.0421240327483183
-0.0693974888093117
-0.103707048229743
-0.137905652153392
-0.162274787438262
-0.166170356579776
-0.140319012714555
-0.0793272248247659
0.0161975011581271
0.138541399334704
0.273272738265829
0.401279476514438
0.50218587749617
0.55846067116612
0.559252595503791
0.502960987238788
0.39781420660865
0.260237447416708
0.111397832244495
-0.027181278962434
-0.137816984163783
-0.209673185319965
-0.239977712661873
-0.233379954686534
-0.199854952820119
-0.151853574531538
-0.101460689169165
-0.0581824526914749
-0.0277178001668787
-0.0117719933759699
-0.00872249825034084
-0.0147993231939203
-0.0254064897397561
-0.0362707028879968
-0.0442203864354827
-0.0475303943808019
-0.0458791331194456
-0.0400345776064224
-0.0314093237964768
-0.0216107768258388
-0.012075726226796
-0.00383444779166829
0.00258970061619089
0.00716650552714917
0.0102659428993065
0.0125231463562366
0.0146927997909646
0.0175153657996459
0.0216085828590607
0.0273909740563682
0.0350401156318682
0.0444861721869481
0.0554393253378373
0.0674471253521305
0.0799741082464522
0.0924917502492583
0.104563332497297
0.115907319968533
0.126425754305788
0.136191070250674
0.145394319249782
0.154267356665813
0.16299794311074
0.171657674798031
0.180158158148965
0.188243014832777
0.195515011695878
0.201490950196406
0.205672770692804
0.207621598783302
0.207021755195256
0.203723585806474
0.197757133381628
0.189313375110612
0.178696229331464
0.166256162180509
0.15232279357408
0.137156101499511
0.120931174914957
0.103760509571236
0.0857446226607548
0.0670318241335557
0.0478652737826541
0.0286004922016366
0.00968680339765008
-0.0083820376572659
-0.0251333065368781
-0.0401779226380599
-0.0532536549350867
-0.064240197839972
-0.0731472528104319
-0.0800844938823971
-0.0852252217502742
-0.088773556176132
-0.0909403602765439
-0.0919286301315101
-0.0919267569218967
-0.0911079488441025
-0.0896347491393436
-0.0876674183958687
-0.0853735481254152
-0.0829346010856293
-0.080544558750547
-0.0783973556030384
-0.0766631995591783
-0.0754582986009237
-0.0748164391032511
-0.0746726095668067
-0.0748672048354453
-0.0751741370439973
-0.0753486676084554
-0.0751834377760478
-0.0745569881629493
-0.0734601985945973
-0.0719926676038625
-0.0703308365884361
-0.0686789727845034
-0.0672193933370899
-0.0660774208878986
-0.0653097413547807
-0.0649149489281787
-0.0648566403869457
-0.0650863541251237
-0.0655569279947297
-0.0662241109807767
-0.0670414004121207
-0.0679565026849286
-0.0689160603980026
-0.0698795079572245
-0.0708362432101875
-0.0718162442261358
-0.0728850520122642
-0.0741198016706496
-0.0755716679856853
-0.0772279297747429
-0.078989669373165
-0.0806766087632009
-0.0820602413022986
-0.0829151290955018
-0.0830713732894325
-0.0824515492805432
-0.0810818206257186
-0.0790760257420711
-0.0765995141906818
-0.0738240203849271
-0.0708854530822374
-0.0678541827161695
-0.0647237607817933
-0.0614200963624727
-0.0578292220820039
-0.0538378053468062
-0.0493769277330795
-0.0444578878342852
-0.0391908875710482
-0.033784041630616
-0.0285285958807662
-0.0237812247601325
-0.0199512776267004
-0.0174902767537046
-0.0168690973333712
-0.0185235650920888
-0.0227569689839979
-0.0296070626866316
-0.0387086119439916
-0.0492010158553881
-0.0597356722519331
-0.068624907251574
-0.0741436074886194
-0.0749512115617857
-0.0705545841540502
-0.0616934387211213
-0.0505122569774182
-0.0403974527881458
-0.0354125416624652
-0.0393555151481988
-0.0545778665055554
-0.0808175594258023
-0.114373724791416
-0.147954077774063
-0.171433576114557
-0.173573765971368
-0.144495280145188
-0.0784298869387927
0.023916791743432
0.154104746383975
0.296354487588731
0.42979126028482
0.532246192871328
0.584840092097308
0.576252740916823
0.505546052438143
0.382716498495249
0.226741739744461
0.0615859394478706
-0.0887963378593536
-0.205168084146827
-0.276294194944768
-0.300146471405029
-0.282989976300485
-0.236855147383055
-0.176222413795903
-0.114796598051028
-0.0630669144982782
-0.0270303535697071
-0.00811208509583345
-0.00403814869539643
-0.0102566760673311
-0.0214746775452715
-0.0329536716111475
-0.0413456335897603
-0.0450044186382375
-0.0438392010154047
-0.0388620899734787
-0.0316135556348611
-0.0236314083250348
-0.0160764185404966
-0.0095602253371782
-0.00415897806412424
0.00044595698718897
0.00477449191765791
0.00936712534790033
0.014658422270164
0.0209175546223716
0.0282461267565644
0.0366120138183877
0.0458972717679993
0.055944098335475
0.0665904718352143
0.0776933372237617
0.0891409560417642
0.100857342955474
0.112801046819442
0.124958674006372
0.137331673356931
0.149914427881104
0.162663684941803
0.175463598362495
0.188095257318749
0.200221808455082
0.21139835021356
0.22110996493569
0.228833421661734
0.234110516501239
0.236615863188611
0.236201174141888
0.232902952735037
0.226910496664409
0.218503227214188
0.207976157699978
0.195575918522903
0.181465763949891
0.165728100247494
0.148401209684342
0.12953725559694
0.109264086387524
0.0878341486771583
0.0656483412144609
0.0432486725435494
0.0212796402194167
0.000423910360554128
-0.0186769308022438
-0.0355017386279005
-0.0497130484771331
-0.0611905507385124
-0.0700278535962533
-0.0764945702395664
-0.080974057814436
-0.0838920234097053
-0.0856514856306798
-0.0865857942812681
-0.0869353199682837
-0.0868471115900736
-0.0863919784791983
-0.0855910282061909
-0.0844437841772651
-0.0829519661275657
-0.0811357190016045
-0.0790414499392266
-0.0767419659301098
-0.0743304542249033
-0.0719104523625339
-0.069584477827965
-0.0674441179640402
-0.0655636865079134
-0.0639980187625477
-0.0627831910343563
-0.0619377933683901
-0.0614625419728934
-0.0613376243952934
-0.061519643307686
-0.0619420942085264
-0.0625234639103481
-0.0631843913569387
-0.0638705058653873
-0.0645728271953544
-0.0653359693747509
-0.0662477060932024
-0.0674108648637685
-0.068906488400043
-0.0707616028018036
-0.0729335778116412
-0.0753167756325717
-0.0777689085588622
-0.0801476455666026
-0.082344977521799
-0.084308445297356
-0.0860435354402309
-0.0875981324800531
-0.0890355156967189
-0.0904053746843186
-0.0917221368918954
-0.0929569547601511
-0.0940450776958029
-0.0949054583276393
-0.0954656752749241
-0.0956835845078209
-0.0955580287595134
-0.0951243857292689
-0.0944359719603637
-0.0935377377541428
-0.0924421088055781
-0.0911164683542855
-0.089487439333837
-0.0874606473336407
-0.0849489591877355
-0.0818996238891525
-0.0783117367747788
-0.0742387568091389
-0.0697749308574606
-0.0650288926192395
-0.0600925189495601
-0.0550175795223343
-0.0498143552142005
-0.0444822441407023
-0.0390713216982428
-0.0337584366877592
-0.0289077391670611
-0.0250807053613751
-0.0229694776561523
-0.0232490470884932
-0.0263722051854434
-0.032357068224181
-0.0406319041495661
-0.0500007635325302
-0.0587745549108065
-0.0650775390973359
-0.0672936270536268
-0.0645685191440786
-0.0572440826632679
-0.0470837445651013
-0.0371638287348148
-0.0313614257838655
-0.0334605508453098
-0.0460097891519856
-0.0691712113604682
-0.0998711248874747
-0.131568063204507
-0.154871481654374
-0.159073727188407
-0.134421959312789
-0.0747080742508297
0.02043359590416
0.144184159448889
0.28268568179975
0.416892225142753
0.525910036972862
0.591169614434792
0.600459859822698
0.550787628337808
0.44926174223945
0.31170121801903
0.159292353731033
0.0141632126513612
-0.104981934352226
-0.18610927377386
-0.225314924166851
-0.226369175523622
-0.198719862806185
-0.154651370359887
-0.106379723281588
-0.0637349140175019
-0.0328179199393352
-0.0157180318389846
-0.0111192313794643
-0.0154643045746564
-0.0242977312180324
-0.0334577032829046
-0.0398990672827977
-0.0420618784388468
-0.0398195024211872
-0.0341229879255843
-0.0264957887700084
-0.0185276724597819
-0.0114798882834362
-0.00606084429866324
-0.00237860132999729
-3.60337435543722e-05
0.0016870801278333
0.00362395531141051
0.00653165730078317
0.0109554396360059
0.0171613671556984
0.0251362075461056
0.034641370623509
0.0453000418547751
0.0566939245558863
0.0684478769324429
0.0802863692171959
0.0920538303210853
0.103699971631797
0.115239140742549
0.126697753133616
0.138064666447299
0.149256238704428
0.160102429768475
0.170354771827553
0.17971267732271
0.187861590885908
0.194514691750898
0.199449301829201
0.202530334767985
0.203716282937911
0.203047733167726
0.200622662745727
0.196565146609079
0.190994060659016
0.18399695530469
0.175613200436548
0.165830317950775
0.15459681114718
0.141852059619292
0.127569005386701
0.111800553481681
0.0947183147261563
0.0766334465192614
0.0579930758101263
0.0393506736553665
0.0213137136992737
0.00447641630270092
-0.0106511100108943
-0.0237042054738168
-0.0345031750834258
-0.0430626801184479
-0.0495692775891452
-0.0543327155268171
-0.0577223801166696
-0.0601028040022757
-0.0617809102016055
-0.0629735031052907
-0.0637981050181555
-0.0642853549937382
-0.0644078439671154
-0.0641182828759503
-0.0633885848911962
-0.0622407816745436
-0.0607617420155697
-0.0590974164241199
-0.0574282833049275
-0.0559336324447742
-0.0547557330268946
-0.0539744226691525
-0.0535986253073598
-0.0535754735539725
-0.053812209048924
-0.0542026700362433
-0.0546499872441951
-0.0550800755453389
-0.0554453523065548
-0.0557225432240143
-0.0559101824938412
-0.0560296334136761
-0.0561293928588613
-0.0562886370384121
-0.0566145774054956
-0.0572298145028429
-0.0582495606232085
-0.0597527111713846
-0.0617537740086534
-0.0641837323774742
-0.0668868937910205
-0.0696379992308438
-0.0721796236162837
-0.0742744147060299
-0.0757608758930578
-0.0765973027601832
-0.0768787874942164
-0.0768183963625433
-0.0766945817687297
-0.0767788283793239
-0.0772654969854039
-0.0782260469695498
-0.0796017045356732
-0.0812352525298061
-0.0829292154746743
-0.0845093933134279
-0.0858723225844129
-0.0870024805538751
-0.0879566735785735
-0.0888244028390602
-0.0896799896941883
-0.090542971904345
-0.0913585069588534
-0.0920018907905038
-0.0923039141258775
-0.0920887738930802
-0.09121417168207
-0.0896034678646954
-0.0872617134680886
-0.0842710687399025
-0.0807666071474886
-0.0768998858708453
-0.0728028755301482
-0.0685665980581374
-0.0642457198898084
-0.0598924566015279
-0.0556121999860985
-0.0516225635964737
-0.0482910715402876
-0.0461276490666852
-0.045717240324203
-0.0475934660759923
-0.052072749576862
-0.0590857829340278
-0.0680554588524571
-0.0778730751740296
-0.0870136102083794
-0.0938040749204761
-0.0968186206072375
-0.0953281080890538
-0.0896927703283881
-0.0815682758628277
-0.073808834433025
-0.0700005743302649
-0.0736406283175658
-0.0870794170772474
-0.110443781251564
-0.140828578962373
-0.172054858599499
-0.195222018057215
-0.200125052171641
-0.177386974333712
-0.120919340215871
-0.0301394551848307
0.08868748089608
0.222500967497
0.353125262452754
0.460402083729835
0.526176577471337
0.538223597666442
0.493114318796724
0.397224476772635
0.265547813054234
0.11857478861257
-0.0219659159715609
-0.137412169166186
-0.215473969928849
-0.251843139719822
-0.249920889939627
-0.218971884731593
-0.171351383347941
-0.119567861175022
-0.073849579164562
-0.0406463465304063
-0.0222056932600992
-0.0170977967412299
-0.0213821802671913
-0.0300347544869281
-0.0382791859440367
-0.0425637313484121
-0.0410561086903841
-0.033658732747321
-0.0216477556315739
-0.00709697150546582
0.00774124663291283
0.0209543548387268
0.0312980528351688
0.0383081695853242
0.0422245849365106
0.0437916181985076
0.0440111334871322
0.0439145403430571
0.0443956373025844
0.0461182531654852
0.0494902065132939
0.0546833743151754
0.0616785578424716
0.0703193454725436
0.080366034529513
0.0915450163388558
0.103589788829644
0.11626847164223
0.12939209020432
0.142800228717878
0.15632648867016
0.16975391610828
0.182776862828946
0.194987072403872
0.205896252332516
0.214996030841984
0.221842687650936
0.22614331494651
0.227816468536556
0.227006055225512
0.224040944952078
0.219350003880534
0.213356597762424
0.20638274219714
0.198588866022191
0.189962576805379
0.180354009215597
0.169542345684495
0.157312209271446
0.143520622191929
0.128142566530857
0.111291814401316
0.0932200876548676
0.0743000885874307
0.0549970135501301
0.0358309121856382
0.0173310924938512
-1.49710951710836e-05
-0.0158125392280178
-0.0298013161387715
-0.0418778658910949
-0.0520913310736233
-0.0606114598536504
-0.067676018655549
-0.0735310762178253
-0.0783795523074131
-0.0823501811042176
-0.0854924446289566
-0.0877959279673102
-0.0892270248505447
-0.0897725978854299
-0.0894788536503225
-0.0884742978164259
-0.086968636850813
-0.0852251253007773
-0.0835112487798088
-0.0820397058840684
-0.0809160091894868
-0.0801090121704692
-0.079455852486002
-0.0787039938078622
-0.077582339175298
-0.0758839495588563
-0.0735379788954855
-0.0706499121568537
-0.0674968322599256
-0.0644762351921773
-0.0620197674954524
-0.0604935357776665
-0.0601109821791924
-0.0608810709938931
-0.0626047501764482
-0.0649196675346724
-0.0673808788623163
-0.0695568498194217
-0.0711170891072572
-0.0718906084761918
-0.0718822622331473
-0.0712450133371123
-0.070217649523137
-0.0690463667647403
-0.0679122107239973
-0.066883407415944
-0.0659033790699577
-0.0648150041048705
-0.0634128697846263
-0.0615097224688505
-0.0590011032321359
-0.0559126666919314
-0.0524177020159056
-0.048818097660976
-0.0454901839781846
-0.0428060610898211
-0.0410484585907123
-0.0403400882213023
-0.0406054830702023
-0.0415752576188374
-0.0428320525955934
-0.0438872692194295
-0.0442708111037382
-0.0436140581260307
-0.0417092101202281
-0.0385345225574271
-0.0342427340554974
-0.0291173873255973
-0.0235077506710559
-0.0177571755046141
-0.0121415458850804
-0.0068333117626354
-0.00190172495590063
0.00264877458105709
0.00681127902680468
0.0105004394109776
0.0134950071512049
0.0154258951526535
0.0158278672592495
0.0142565396509661
0.0104520032654048
0.00451095505579364
-0.00298415983014796
-0.0109332635212821
-0.0178269250525747
-0.0220108242579856
-0.0220823055633083
-0.0173486965774057
-0.00823617104039007
0.0034842022477611
0.0147779537330092
0.0218143784302348
0.0208137148539477
0.00915929943943729
-0.0134519029028649
-0.0441283087581395
-0.0764972476813096
-0.101265762279957
-0.107714608524214
-0.0859723597864713
-0.029657121048642
0.0617323079458617
0.18136739383863
0.315158962913434
0.443607813520912
0.545246933404562
0.601007507982336
0.598486805579484
0.535001689576224
0.418548591066957
0.266323997336494
0.101136977042241
-0.0533582061057424
-0.177374352570751
-0.25849490683299
-0.293233280204368
-0.286497900793351
-0.249363137304687
-0.19590491241163
-0.13996076858855
