-0.00796710214648081
-0.00419777954945937
-0.000486387291487485
0.00308269488763846
0.00638259142159676
0.00924481919165039
0.0114751030883205
0.0128782798169525
0.0132860251775844
0.0125832747156208
0.0107312479912518
0.00778499221943303
0.00390145223499759
-0.000667202552686451
-0.00559764473028588
-0.0105324033183715
-0.0151177025076504
-0.0190276420116933
-0.0219663387919221
-0.0236520513234038
-0.0237998214857288
-0.0221247900020466
-0.0183826356813597
-0.0124475574822454
-0.00440881552411728
0.0053465868500211
0.0160988394786529
0.0268308847036958
0.0363393060245452
0.0434053459925715
0.0469947314363006
0.0464465840170581
0.0416125983023424
0.0329168874088715
0.0213218443382484
0.00820277411025913
-0.0048499554992338
-0.0162716338975417
-0.0247728526708632
-0.0295642830094873
-0.0305240309051831
-0.0282758947151467
-0.024149025299961
-0.0199965174673493
-0.0178663926459022
-0.019546320641519
-0.0260423336584812
-0.0370935234449511
-0.0508542324544552
-0.063876054442928
-0.0714833068901372
-0.0685575173853362
-0.0506411760506216
-0.0151618818122411
0.0375045338714211
0.103438367856511
0.175298978675104
0.243276195202137
0.296773868628891
0.326507787951445
0.326533573172752
0.295676281700118
0.237948809114476
0.161803074516457
0.0783817974464828
-0.000778778746368811
-0.0660021585507786
-0.111131226788003
-0.134249230573323
-0.137401804011365
-0.125525477339328
-0.104957223591478
-0.0819387559125863
-0.0614517279431969
-0.0465714945438042
-0.0383641245370051
-0.0362205902052475
-0.0384488129858061
-0.0429316731818412
-0.0476941303246945
-0.0512839163279223
-0.0529359463751223
-0.0525443656381367
-0.0505001390072742
-0.0474654285568025
-0.044151595920335
-0.0411501463497535
-0.0388411592448563
-0.0373782735371375
-0.0367291786455831
-0.0367402666159401
-0.0371955109805156
-0.0378509818054562
-0.0384422337632867
-0.0386753081241029
-0.0382185354020918
-0.0367107218041228
-0.0337935611462526
-0.0291655578830614
-0.0226451949701852
-0.0142258252771603
-0.00410526609848509
0.00732134722520615
0.0195080358474049
0.0318363590306118
0.043709762672286
0.0546437650177641
0.0643334172488016
0.072685623470303
0.0798117656920149
0.0859831809916725
0.0915574659517518
0.0968877024344023
0.102230155908892
0.107668521315254
0.113072460805808
0.118102473507753
0.122261735390395
0.124982083418414
0.125721623648154
0.124049686608224
0.119701304473222
0.112595052969891
0.102820440890288
0.0906093917539182
0.0763076383159323
0.060356098076662
0.0432827443938164
0.025696617393194
0.0082711698221627
-0.00829380828887289
-0.0233341156693591
-0.0362979130654865
-0.0468190861666414
-0.0547663734948725
-0.0602526746461779
-0.063599740574161
-0.0652659243672696
-0.0657548019497627
-0.0655269532069982
-0.0649347537551633
-0.0641922462114613
-0.0633823297145692
-0.0624944475404853
-0.0614791651158267
-0.0603025160127641
-0.0589838109595957
-0.0576061374455804
-0.0562978118495
-0.055192817127774
-0.0543853219678105
-0.0538949380337074
-0.0536548742730544
-0.0535269714840997
-0.0533395045808603
-0.0529379888563598
-0.0522360877422838
-0.0512526909148202
-0.0501230655648442
-0.0490775929235619
-0.048390134368066
-0.0483069374782559
-0.0489735301486666
-0.0503795086161933
-0.0523385815447058
-0.0545137560853771
-0.0564865899670902
-0.0578573662645207
-0.058352392950112
-0.0579082420507779
-0.0567042063329297
-0.0551262313761508
-0.0536665479687628
-0.0527861343137905
-0.0527822919592046
-0.0537038189957935
-0.0553405675637123
-0.057288558193447
-0.0590666773709712
-0.0602462228069906
-0.0605547612607337
-0.0599285905348641
-0.0585068342243632
-0.0565776627138837
-0.0544981830426868
-0.052612037869488
-0.0511838384210683
-0.0503608665335655
-0.0501640431924043
-0.0505043180158774
-0.0512176319111735
-0.0521105394584395
-0.0530083094628583
-0.0537970608446716
-0.0544514632276356
-0.0550410737219457
-0.0557125580640622
-0.0566509983259185
-0.0580287759258733
-0.0599531929650293
-0.0624238016166136
-0.0653079789226216
-0.0683391931693621
-0.0711375784493878
-0.0732485506508147
-0.0741937110979513
-0.0735290579198343
-0.0709069203555334
-0.0661381610797033
-0.0592490528631183
-0.0505234406233728
-0.0405178508953002
-0.0300383448639671
-0.0200744913173713
-0.0116956977887056
-0.00592399660086275
-0.00360195016661299
-0.00527404858697146
-0.0110963796980803
-0.0207847298124393
-0.0336074667063979
-0.0484270853648299
-0.0637921727205381
-0.0780783862026598
-0.0896723496076132
-0.097186273727419
-0.0996832450861386
-0.0968831023869132
-0.0893082350920588
-0.0783219279689138
-0.0660147530025532
-0.0549116832007686
-0.047506003333522
-0.0456729151288077
-0.0500665746224639
-0.0596439103309201
-0.0714704197407602
-0.0809352417572089
-0.0824317533758777
-0.0704531019337243
-0.0409289935161457
0.00747833206403481
0.0724580057049217
0.147827243300206
0.224190269458994
0.290461627465201
0.335991315137296
0.352819224712633
0.337489198533175
0.29192173103269
0.223078384808104
0.141485363353525
0.0590072252802183
-0.0135389480544014
-0.0683296372125829
-0.101614345672012
-0.113780490110784
-0.108538639347804
-0.091563210517046
-0.06899812458439
-0.046190137579803
-0.0268834267995049
-0.0129496973216228
-0.00458548112425937
-0.000813407586845191
-8.96628392995478e-05
-0.000841942249180726
-0.00182437911117051
-0.00225392182335258
-0.00176194563786084
-0.000238227734850868
0.00234471106866906
0.00605681160327106
0.0110506859603446
0.0175206691664806
0.0256126928348681
0.0353284099244042
0.0464628682281387
0.0586005766787696
0.0711754985168235
0.0835808769597723
0.095299216304554
0.106015311914647
0.115678468147024
0.124493828877914
0.132843960526024
0.14116440820051
0.149812944491258
0.158974890591278
0.168634349575414
0.178617900244862
0.188692048801018
0.198677839868286
0.208541577444784
0.218430101951093
0.228637736641999
0.2395129313646
0.251330151287423
0.264163201447086
0.277797568167809
0.291710199988132
0.30512689467744
0.317145210519694
0.326891798589388
0.333673682186004
0.337086404046569
0.337056566116009
0.333816260102252
0.327824774961339
0.319663394900698
0.309930648685869
0.299159633240375
0.287768985446081
0.276048410112627
0.264171997865657
0.252229547378252
0.240266464539489
0.228323967682136
0.216471957532553
0.204827535331115
0.193553844907127
0.182837311497887
0.172846536498044
0.163682179214679
0.155331702355871
0.147643054143242
0.140326343496158
0.132984333956484
0.125164380348564
0.116418823422723
0.106359326708831
0.0946937972311426
0.0812416881637433
0.0659322607667572
0.04879733544016
0.0299718132173594
0.00970962303498212
-0.0115896649115617
-0.0333625675850462
-0.0548983802471063
-0.0754111585673426
-0.0941666520540786
-0.110636808448098
-0.124633816271851
-0.13637252493118
-0.146428372768817
-0.155591775131806
-0.164655746767081
-0.174196765016098
-0.184411162781122
-0.195051667366232
-0.205479109101185
-0.214813212600535
-0.222142718801854
-0.22674411081334
-0.228260462270325
-0.226804123155021
-0.222964529783749
-0.217721403786656
-0.212280785361764
-0.207864214691759
-0.20548893043507
-0.205779830845656
-0.208852549819797
-0.214299773149933
-0.221297427042039
-0.228823388373766
-0.235952731204177
-0.242167466439464
-0.247603710346342
-0.253162080550104
-0.260430116803139
-0.271404868170492
-0.288051093122243
-0.311775682825197
-0.34293183120251
-0.380477604020633
-0.421895697694777
-0.46343290314474
-0.500646216168606
-0.529163170032947
-0.545497791698899
-0.54773222910524
-0.535893016795567
-0.511921532008767
-0.479243093666388
-0.442045956591123
-0.404454995951838
-0.369802052351786
-0.340153843637181
-0.316177476385889
-0.297331721355895
-0.282295813151368
-0.26950267210843
-0.257635312795029
-0.245971154519243
-0.234510155330539
-0.223884623613781
-0.21510387531051
-0.209221144507785
-0.207016629902864
-0.208771532549366
-0.214172588561128
-0.222347294577511
-0.23199807956658
-0.241586265733199
-0.249516276141535
-0.254285787689344
-0.254592802238166
-0.249415543250476
-0.238093373382903
-0.220429113905187
-0.196808008138024
-0.168297915458555
-0.136673513010666
-0.104305005170482
-0.073873112153927
-0.0479137560187858
-0.0282485617007673
-0.0154081333705038
-0.00819056732534559
-0.00350567844188028
0.00337342800126042
0.0180992708226088
0.0461314853969084
0.0913842484054579
0.154922318993544
0.23404974957448
0.322113881213641
0.409223059631675
0.483860139179652
0.53511430766368
0.55503055813062
0.540474508490627
0.493987136062553
0.423357311280215
0.339997838554756
0.256552228212286
0.184364162266696
0.131442574689203
0.101365855575963
0.0932702144033373
0.102768301132113
0.123435943712231
0.148431957427917
0.171871086467476
0.189708783629855
0.200061360302094
0.20302717725578
0.200165110486863
0.193818300689221
0.186453901075656
0.180141803375078
0.1762365077889
0.175271415714621
0.177033298591869
0.18076079019547
0.185403787368202
0.18988610656628
0.193326115065341
0.195185448236775
0.195332166909451
0.194019929618566
0.191797125050012
0.189368624515475
0.187438171793766
0.18656158298971
0.187039125044254
0.188868648186837
0.191769063003663
0.195268008850561
0.198831592469645
0.202002949686904
0.204514403095352
0.206346091179453
0.207719188474969
0.20902922381845
0.210739622745488
0.213263824163263
0.216864538063914
0.221591793087926
0.227270119042566
0.233532591361341
0.239888152471567
0.245801334469946
0.250762903673406
0.254336608681842
0.256178052853689
0.256031578181316
0.25371619640791
0.249111411604305
0.242149807582563
0.232817864289846
0.221162060122293
0.207295627194436
0.191402345734536
0.173735990291085
0.154615925086877
0.134420128299019
0.113576328638116
0.0925501488754571
0.0718274043257995
0.0518878804036331
0.0331708075849785
0.0160365809978882
0.000732710440416395
-0.0126271813091101
-0.0240647814791635
-0.0337172614744427
-0.0418004130294854
-0.0485636743954904
-0.0542478140849179
-0.059054624778562
-0.0631340340658706
-0.0665887988683169
-0.0694920831962414
-0.0719104848644236
-0.07392511425355
-0.0756450254732955
-0.0772091506079886
-0.0787747569126244
-0.0804932609601392
-0.0824781328759444
-0.0847732653195746
-0.087331855389094
-0.0900145816209048
-0.0926115353130816
-0.094885728684844
-0.0966289299178739
-0.0977156334307888
-0.0981400334321004
-0.098024223577924
-0.0975926850765421
-0.0971171852476989
-0.0968454842956083
-0.0969337520705888
-0.0974034800414136
-0.0981379004627929
-0.0989217572185879
-0.0995146230423029
-0.0997358334132988
-0.0995330312937749
-0.099009662282239
-0.0983995724681253
-0.0979951798291312
-0.0980530061805651
-0.0987099622189703
-0.0999411157962719
-0.101574631947693
-0.103357582919001
-0.105046448738851
-0.106486691879986
-0.107650632252877
-0.108620139776527
-0.1095236869445
-0.110456546825636
-0.111419813812817
-0.112305263099843
-0.112932962370808
-0.113126108749162
-0.112792241363666
-0.111977736611578
-0.110873787273121
-0.109771593252404
-0.108983416744642
-0.108756741250762
-0.109208337524561
-0.110295996479804
-0.111832594205148
-0.113534327822133
-0.115085938310394
-0.116202863396375
-0.116673799177331
-0.116375246260201
-0.115259462025073
-0.113325868570354
-0.110590463820151
-0.107066323145179
-0.102761788588493
-0.0976949990562909
-0.091917644611842
-0.0855385646453479
-0.0787383841493112
-0.0717688841736935
-0.0649348890148064
-0.0585618320846455
-0.0529578030054533
-0.0483825561902773
-0.0450346978146412
-0.0430603797550653
-0.0425745885882705
-0.04367600055836
-0.046435366083482
-0.0508480533905178
-0.0567599063009152
-0.0637939014797048
-0.0713148559169886
-0.0784653678045624
-0.0842882054651242
-0.0879237191962634
-0.0888436392612039
-0.0870623298093465
-0.0832582667454104
-0.0787453087880583
-0.0752569219254351
-0.0745461499604772
-0.0778549471215714
-0.0853587904004074
-0.0957323219006458
-0.105993222951225
-0.11175125718381
-0.107912803664583
-0.089777163936652
-0.0543329722516059
-0.00145605639721754
0.0653367058346715
0.138877614047356
0.20923479398657
0.265420629464586
0.297598441530656
0.299271634210698
0.268879342728763
0.210336571640659
0.132328306614535
0.046515812260798
-0.0348788636652736
-0.101484125124136
-0.14659668392524
-0.168024719717334
-0.167870019444067
-0.151442983718499
-0.125689135772504
-0.0975594917904105
-0.0726914440798127
-0.0546249132502253
-0.0446133354995632
-0.0419453842389266
-0.0445990430269168
-0.0500143408685186
-0.0557894048459362
-0.0601617641763714
-0.062214133902473
-0.0618214231071446
-0.0594154879987845
-0.0556739148594806
-0.051235936261847
-0.0465189841781127
-0.0416657034208651
-0.0366072803295417
-0.0311967373217336
-0.0253529301348962
-0.0191630677885403
-0.0129127811907538
-0.00703896453490255
-0.00202340373371835
0.00174072688905721
0.00407360961880595
0.00509357144956843
0.00524069054511031
0.00523082238391995
0.00594611343827289
0.00828247789984749
0.0129855204252639
0.020510335078256
0.0309357740778506
0.0439512199457615
0.0589169022876813
0.0749820179576152
0.0912330052691987
0.106840016924074
0.121172621983121
0.133863829204741
0.144812620649386
0.154128000970604
0.162030414526405
0.168736522788896
0.174357736426599
0.178839421085765
0.181956093649224
0.183360927351452
0.182671456606829
0.179564293614851
0.173853270899695
0.165535469852919
0.154802401134105
0.142023793079604
0.127715945953759
0.112504919337284
0.0970890423233556
0.0821993904611721
0.0685545275501839
0.0568077323194045
0.0474892349783582
0.0409502636170885
0.037318441731239
0.0364745613236276
0.0380587187415295
0.0415095937764062
0.0461350358871598
0.0512057003201664
0.056056984813969
0.0601797919570783
0.0632803870778421
0.0652954448976352
0.0663592575354599
0.0667328719315545
0.0667157816566294
0.0665660018297206
0.0664513199679177
0.0664435223756546
0.0665523486944498
0.0667824833963222
0.0671894761842975
0.0679108400327602
0.069156124927448
0.0711522487355678
0.0740543905790882
0.0778447629726615
0.082248833858169
0.0866991829247836
0.0903697886383593
0.0922880349610282
0.0915107362686398
0.0873296706173245
0.0794582584636438
0.0681493340807926
0.0542063136442371
0.0388743327431283
0.0236281550065853
0.00990158902642337
-0.00117926218639039
-0.00899507917121862
-0.0135174027096695
-0.015261574875108
-0.0151288648728643
-0.0141869155946542
-0.0134485793933856
-0.0137000808731637
-0.0154065194364739
-0.0186964896547212
-0.0234076356086943
-0.0291665409001107
-0.0354791752535477
-0.0418172481908885
-0.0476948632302325
-0.0527344436624605
-0.0567201577587195
-0.0596330260405808
-0.0616581809326844
-0.063155216107227
-0.0645891797728183
-0.0664308983617763
-0.069046456861147
-0.0726022654440764
-0.0770116402787207
-0.0819405608534015
-0.0868752917792525
-0.0912365333436143
-0.0945099332611281
-0.0963572591614162
-0.0966787787049016
-0.0956131088429977
-0.0934802195287144
-0.0906893589470024
-0.0876405522804511
-0.0846441425199751
-0.0818709023920066
-0.0793319480360078
-0.0768788258024022
-0.0742128537031251
-0.0708993504227373
-0.0663938885525105
-0.0600978389807338
-0.0514615645423696
-0.0401411803256495
-0.0261909768246365
-0.0102469011585742
0.00636159352850262
0.021633431558932
0.0330900113082443
0.0381373231645045
0.0345417461115998
0.0209227436046304
-0.0028549140207037
-0.0354960757256525
-0.074360489115126
-0.115815165220271
-0.155781871293578
-0.190360702637927
-0.216399461354337
-0.231901525979934
-0.236209891336669
-0.229959064546811
-0.21483840759171
-0.193248342939211
-0.167942567590395
-0.141729675174706
-0.117263343199036
-0.0968996932789934
-0.0825654746060061
-0.0755773754525161
-0.0763843177366598
-0.0842606091108783
-0.0970385491219298
-0.111011682214525
-0.121144195704311
-0.121675849980995
-0.107116495055901
-0.0734975162809889
-0.0196229735814897
0.0520163097421902
0.134996118435337
0.219595331610827
0.294319220818885
0.348055147753158
0.372382208638147
0.363449824805542
0.322905697293372
0.257589864143434
0.178053186989821
0.0962930982220654
0.0233108361610244
-0.0328877037523276
-0.0683970002052922
-0.0834618599476972
-0.0816143091095289
-0.0682606490858053
-0.0491664850469834
-0.0292321511862193
-0.011795754386925
0.00149080616376398
0.0103333959196092
0.0152321269065193
0.0169138560941443
0.0159365028581207
0.0125478216335001
0.00678406350551919
-0.0012812020604923
-0.011265790083048
-0.0223082499063948
-0.0330779624402237
-0.0419786800267796
-0.047488738257036
-0.0485334631989507
-0.0447751179006654
-0.0367340069640686
-0.0257075844058086
-0.0135120072394268
-0.00211446957057208
0.00675465834402581
0.0119241652105809
0.0129757320423242
0.0102803800404933
0.00488556967127474
-0.00170966423441332
-0.00783761966695153
-0.011945643050188
-0.012830288993558
-0.00978551014658186
-0.00264731998224877
0.00826129763708863
0.0222612482061114
0.038485333528165
0.0560400609997928
0.0741256291855319
0.092096921326517
0.109470582251596
0.125899731907999
0.141141643928972
0.155034399248088
0.167482393416867
0.178437335008317
0.187859212033001
0.195652702340117
0.201592995848863
0.205270582604618
0.206088035893548
0.203329905668734
0.196303280005857
0.18452021548513
0.167874382744011
0.14676020075228
0.12209442100068
0.0952228282438095
0.0677219084362181
0.0411316148423473
0.0166758737195256
-0.00496348683774997
-0.0237608524929176
-0.0403139454295504
-0.0556633450621401
-0.0710005531005205
-0.0873306513730996
-0.1051704125008
-0.124357133302166
-0.144017672377101
-0.162707702573856
-0.17868874333651
-0.190276649216751
-0.196179176472805
-0.195746284683292
-0.189082366989007
-0.177006051003081
-0.160879585219211
-0.142356724594679
-0.123109933313048
-0.104593702631387
-0.0878842862631584
-0.0736134749700757
-0.0619915342547394
-0.0528965319981907
-0.0459966211544495
-0.0408701635333358
-0.0370961836120986
-0.0343019986634145
-0.0321708181982905
-0.0304240427657897
-0.0287973199381016
-0.0270258320602442
-0.0248458207127224
-0.0220109617400511
-0.0183179927291958
-0.0136365535513331
-0.00794054386137363
-0.00133865607629729
0.00590138528876802
0.01334522786531
0.0204140932744942
0.0264468290147248
0.0308015009423337
0.0329813839976318
0.0327569329994718
0.0302496511359632
0.0259490077332834
0.0206493888276905
0.0153165735000632
0.0109150134608603
0.00823945688495867
0.00779156666684129
0.00972533375663685
0.0138616638443825
0.0197520840721742
0.026761751556302
0.0341459084722726
0.0411085678890539
0.046849219928359
0.0506133910549148
0.0517609591823445
0.0498538135886047
0.0447480609340775
0.036663184414935
0.0261978075444918
0.014272085843996
0.00199803949965201
-0.00949622359269491
-0.0192444488862291
-0.0265750343839384
-0.0311651593965943
-0.0330091685306464
-0.03232305337281
-0.0294265470928196
-0.0246471057708569
-0.0182755498164995
-0.0105778665547879
-0.00184221310842871
0.00757442038910737
0.0172322128820594
0.026640123170723
0.0353208455657964
0.0428790715886893
0.0490411368982094
0.0536481603071537
0.0566079064327697
0.0578326945735583
0.0572015575430766
0.0545780553514275
0.0498915881491088
0.0432585711404356
0.035093340100578
0.026148729129255
0.0174393415659315
0.0100358572639155
0.0047673619477148
0.00191494193896457
0.00100604216988548
0.00081236625243166
-0.000389001370218283
-0.00430321588413395
-0.0119485728569248
-0.0229957805795163
-0.0353174774612996
-0.0449381063109595
-0.0465090110595842
-0.0343207705594481
-0.00372214720305716
0.0473273386994559
0.116947472957029
0.198671315639823
0.281743391288724
0.352511979588117
0.396775350993678
0.402655917244153
0.363359671109715
0.279113015798519
0.157703661364528
0.0133751596587554
-0.135745124119744
-0.271098420976603
-0.377193480866995
-0.444313576799659
-0.469831190930147
-0.457926739699459
-0.417930875752598
-0.361829883987433
-0.30160886202565
-0.247045828979317
-0.204361557431178
-0.175857947890496
-0.160425769597721
-0.154630599386523
-0.15401950459495
-0.154322779841162
-0.152323425926635
-0.146291514724673
-0.135995801722633
-0.122388943513715
-0.107107094705723
-0.0919310154144416
-0.0783318785993812
-0.0671819270581181
-0.0586598640208222
-0.0523337881558436
-0.0473688785780687
-0.0427886973299784
-0.0377199812026852
-0.0315682852512341
-0.0240987051811818
-0.0154232924142074
-0.00591697030426823
0.00390735810208068
0.0135352376972689
0.0225757294399227
0.0308577051521254
0.0384824187269366
0.0458194411031884
0.0534390934566618
0.0619869948786777
0.072023407383506
0.0838655762680178
0.097477226577467
0.112440430321626
0.128022498244434
0.143322297533738
0.157456712762774
0.169736585783236
0.179785307949309
0.187570381282852
0.193342945383927
0.197504904384285
0.200441395758413
0.202364384350445
0.203210177139422
0.202620215661983
0.200013044287905
0.194731015132932
0.186225014094535
0.174230202332439
0.1588880123805
0.140783226843764
0.120885886718051
0.100410437681662
0.0806233535321695
0.062641459374817
0.0472643342321583
0.034875239000612
0.0254276994105914
0.0185135928902916
0.0134897917357342
0.00962983589887948
0.00626697942136748
0.00290340953939175
-0.000726964324186958
-0.00464288708224202
-0.00864034488113188
-0.0123476963555396
-0.0153022290000958
-0.0170401530265837
-0.0171918058674555
-0.0155715236865094
-0.0122477890911172
-0.00757608659710397
-0.00217807632431687
0.00314069631605344
0.00752671648355607
0.0102422824919967
0.010818145764999
0.00915360846771947
0.005534074736756
0.000559070891767106
-0.00499922833252196
-0.0103662629540622
-0.0149170623386448
-0.0182724064940623
-0.0203224458044239
-0.0211848486936448
-0.0211227927180072
-0.0204549884796783
-0.0194846857431195
-0.0184615523881688
-0.0175758321867542
-0.016973401085155
-0.0167758581085793
-0.0170920154229801
-0.0180144115228502
-0.0196031402069066
-0.0218653382900023
-0.0247399179430224
-0.0280940584792373
-0.031732803125289
-0.0354184727200164
-0.0388946097400694
-0.0419103578170516
-0.0442440497982567
-0.0457268633768123
-0.0462672814966193
-0.04587493959459
-0.0446790670030418
-0.0429333012612372
-0.0409974643438947
-0.0392907213375432
-0.0382198403045445
-0.0380973707104207
-0.0390717012073913
-0.0410902218457896
-0.0439081811336925
-0.0471425032939338
-0.0503564470534986
-0.0531518466747582
-0.0552434129405341
-0.0564947178336308
-0.0569068672820519
-0.0565657330553478
-0.0555673177308503
-0.0539478234504729
-0.0516420897659423
-0.048483128574275
-0.044242207467753
-0.0386985365386082
-0.0317219404939628
-0.0233500954859301
-0.0138426270438696
-0.00369700108487549
0.00638393366553147
0.0155746918095845
0.023050455610452
0.0281284852205874
0.0303963083022451
0.0297948664211677
0.0266338611804277
0.0215325412168856
0.0152972359465335
0.0087617667796375
0.00262430510467907
-0.00268716401783459
-0.00709720552650751
-0.0109018322742349
-0.0147250017383827
-0.0194232918533214
-0.0259541543821102
-0.0352233097248952
-0.0479244007949893
-0.0643812529457971
-0.0844007784910131
-0.107143041588784
-0.131016970286074
-0.153620678953195
-0.171766102024985
-0.181650336737138
-0.179242022873794
-0.160920234148696
-0.124328147135509
-0.0692989540443569
0.00138606291022185
0.0816907988612343
0.162704659937883
0.233798300605867
0.284425510962837
0.306217136246
0.29486024212748
0.251244080059462
0.181510948756032
0.0959394794801295
0.00691745448954303
-0.0734840594202578
-0.135731517825282
-0.17433485821777
-0.188361847181927
-0.18096583337489
-0.158170186929891
-0.127287274834278
-0.0953654770659549
-0.0679766074781111
-0.0485203003743392
-0.0380768114917108
-0.0357215389345238
-0.0391433818592557
-0.0453873862825593
-0.0515600081560031
-0.0553777242934545
-0.0554923432155988
-0.0515782795761352
-0.0442110179494807
-0.0345974678244235
-0.0242349509755612
-0.0145750261959781
-0.00675334633887326
-0.00142291710779583
0.00129753264516605
0.0017705262007476
0.000708642017995311
-0.000999385656814816
-0.00246783660599756
-0.0029652233316114
-0.00201327491781697
0.000578452360217582
0.00474088074931155
0.0102226176738728
0.016693160820851
0.0238454723300593
0.0314729642819043
0.0395030411007452
0.0479816199981513
0.0570181743991092
0.0667136813113254
0.0770987473303685
0.08810349630586
0.0995665357933817
0.111273237266842
0.123000947035591
0.13454648679657
0.145720832729717
0.156312835849377
0.166040289259891
0.17451515043056
0.181246619917778
0.185692122809368
0.187347380089595
0.185850527378831
0.18106849071737
0.173138974363642
0.162455735207609
0.149602669219049
0.13525749553618
0.12009322845095
0.104702308801917
0.0895558374176219
0.0749950291824499
0.0612411971025388
0.0484085340770869
0.0365101274401464
0.0254579360316571
0.0150664118685999
0.00507238775938125
-0.00482078707755155
-0.0148766219875417
-0.0252483391108933
-0.0359100910790809
-0.0466172455769218
-0.056912416664105
-0.0661840238597002
-0.0737701570223022
-0.0790865610232029
-0.0817487428414691
-0.081658265233639
-0.0790328144331322
-0.0743755062842368
-0.0683952392382788
-0.0619006966462988
-0.0556927381722337
-0.0504742573774357
-0.0467865921711429
-0.0449715649792693
-0.045152237883615
-0.0472258980758585
-0.0508686706654129
-0.0555580634270013
-0.060622478014553
-0.0653225953356507
-0.0689595534090368
-0.0709926574123018
-0.0711399871849642
-0.0694336398754544
-0.0662101392180273
-0.0620339526191028
-0.057571942471063
-0.0534513891282548
-0.0501384290973816
-0.0478658752611265
-0.046622564662829
-0.0461973688774764
-0.0462571494208171
-0.0464334682390176
-0.0463972722411166
-0.0459102052194407
-0.0448508628786969
-0.04322037240643
-0.041132791576358
-0.0387937656544345
-0.0364691165945674
-0.0344456924540003
-0.0329890475863397
-0.0323040361077976
-0.0325038714144621
-0.0335910657445191
-0.0354511266599164
-0.0378580628157536
-0.0404902771027001
-0.0429560604447234
-0.0448285916926181
-0.0456902510775255
-0.045185178579838
-0.0430773695332872
-0.0393084119140371
-0.0340439297943958
-0.0276931247317302
-0.0208857374474391
-0.014398180759184
-0.00903428820157171
-0.00548113792996782
-0.00417079241169505
-0.00518031545897455
-0.00819435407351042
-0.0125399659049022
-0.0172873909583807
-0.021397511051213
-0.0238888845437314
-0.0239949151601561
-0.021284784746469
-0.0157293543593511
-0.00770320077087963
0.00207605606032471
0.0126610606014886
0.0230226322117235
0.0322074885641315
0.0394770154927436
0.0443994918214921
0.0468763546488746
0.0470981840856742
0.0454448835633393
0.042360903425241
0.0382438184194854
0.0333797238724451
0.0279429750025467
0.0220555233386066
0.0158789692362121
0.00969728901844785
0.0039458209638422
-0.000844668644311337
-0.00419286893978388
-0.00587011518490728
-0.00609911322337343
-0.00566747097170793
-0.00588113893120778
-0.00831577879067269
-0.0143787876050169
-0.0247585352994469
-0.0388936769828566
-0.0546269471192078
-0.068200118003942
-0.07469220946135
-0.068905160515867
-0.0465768516103278
-0.00567936151735258
0.0525231300969766
0.122991815281947
0.197253888396681
0.264633382599535
0.314200973522132
0.337040177670499
0.328279931172441
0.288344066577507
0.223039724726238
0.142411962646835
0.0586373354209735
-0.0165016270425897
-0.0739178187856755
-0.108748064890538
-0.120806697003053
-0.113969938424911
-0.0947664671636405
-0.0706092591423467
-0.0481271989216588
-0.0319589246860813
-0.0242016034032406
-0.0245198551194669
-0.0307650921318418
-0.0398657188654435
-0.0487333749792101
-0.0549780642525568
-0.0573110194290006
-0.0556104528962424
-0.0507076269080132
-0.0440027813116184
-0.0370362940396293
-0.0311233752645336
-0.0271208135661865
-0.0253457907435715
-0.0256241979625651
-0.0274204974191265
-0.0299968822995415
-0.0325618169619277
-0.0343874745360591
-0.0348926567974022
-0.0336965512885388
-0.0306481337468447
-0.0258300528399367
-0.019531323353124
-0.0121857051495372
-0.0042824809154086
0.00373192071277683
0.0115364826101363
0.0189803525650089
0.0260797214318643
0.0329726516090107
0.0398506917135355
0.0468909369608202
0.0542078595896612
0.0618339609557029
0.0697268521811706
0.0777917103957916
0.0859046777238035
0.0939254173820183
0.101694044424775
0.109015392386398
0.115638797663687
0.121243279922921
0.125436985029279
0.127777036735653
0.127812001866057
0.125144254834369
0.119503880396684
0.110820028249912
0.0992716575759629
0.08530026627057
0.0695744367785226
0.0529086657683255
0.0361526863561918
0.0200770618870016
0.00528222415843532
-0.00784979211122782
-0.0191560618724815
-0.0286556255582371
-0.0364924973263265
-0.0428766903776874
-0.0480353926882926
-0.0521797023783794
-0.0554872507149893
-0.0580978603432859
-0.0601177610471476
-0.0616277935128607
-0.0626923085945886
-0.0633674339642864
-0.0637090545236557
-0.0637812207358286
-0.0636641363374345
-0.0634580574849137
-0.0632776117321124
-0.0632325556320173
-0.0633961769200983
-0.0637693587889168
-0.0642536730129548
-0.0646479530658187
-0.0646778426651816
-0.0640571551448241
-0.0625669679940132
-0.0601288708025551
-0.0568475651325653
-0.0530064698043627
-0.0490153195386426
-0.0453249859748635
-0.0423349581547726
-0.040318655225479
-0.0393821293400853
-0.0394588923179825
-0.0403342189472291
-0.0416891314599035
-0.0431557378466879
-0.0443780913625857
-0.0450731749454253
-0.0450840185063924
-0.0444133510021961
-0.0432256543081697
-0.041810959846849
-0.0405142063163151
-0.0396451253895634
-0.0393909276429299
-0.0397551114206066
-0.0405403853860895
-0.0413835549259493
-0.0418379005247663
-0.0414866694677465
-0.0400616596285442
-0.0375354758806516
-0.0341580523907317
-0.0304201253754784
-0.0269469045236374
-0.0243471698911122
-0.0230577382072538
-0.023225604648501
-0.0246602935868296
-0.0268707753149883
-0.0291798016418584
-0.0308889265336007
-0.0314542536923575
-0.0306289547439548
-0.0285350855207797
-0.0256437869358585
-0.0226664985099388
-0.0203839091307212
-0.0194561431034126
-0.0202615903812715
-0.0228022109069844
-0.0266940260549584
-0.0312392849046284
-0.0355580172928456
-0.038745929084648
-0.0400242257923109
-0.0388536731441857
-0.0349974957442778
-0.0285322209649618
-0.0198177083510136
-0.00944283392855347
0.00183964558819478
0.0131830278846251
0.0237214188475644
0.0326498070651544
0.0393050048194643
0.0432361758024386
0.0442497844932892
0.042416480297548
0.0380370278366584
0.0315774246681211
0.0235941814469042
0.0146742659314041
0.00540749539698141
-0.00360757549580344
-0.0117450162882237
-0.0183574562185995
-0.0228435774059379
-0.0247913258663282
-0.0241716465318862
-0.0215174634832057
-0.0180001423551208
-0.0153237156642391
-0.0153981940182074
-0.0198182511530778
-0.0292448513543155
-0.0428446303145297
-0.0579672877098301
-0.0702225920652406
-0.0740508734963316
-0.0637695956732502
-0.0349428121768534
0.0142077969083117
0.0817123478624705
0.161440894743212
0.243618727217193
0.316308526355603
0.367634315935202
0.388275017621204
0.373611276716784
0.324935555673426
0.249350485977829
0.158333468142703
0.0653248370988813
-0.0170295395832048
-0.079277912138079
-0.116646275677633
-0.12934481468701
-0.121772834497305
-0.100965028810465
-0.0747523459554896
-0.0500939763876657
-0.0319093447847522
-0.0225592486724054
-0.0219505559388518
-0.028109546105126
-0.0380039007687327
-0.0483915921299031
-0.0565211978136342
-0.0605802028750068
-0.0598634403001148
-0.0546956478667011
-0.0461802329703374
-0.0358591373206802
-0.0253617490789905
-0.0161028995865629
-0.00906851150454694
-0.00470663903582095
-0.00292356941400942
-0.00317049321310853
-0.0045960907488373
-0.00623356764327479
-0.00718721978036064
-0.00678478649414976
-0.00466890985111229
-0.000813768062273266
0.00453040411237988
0.0109449255635139
0.0179694644169357
0.0252118801823934
0.0324141622060255
0.0394658936885903
0.0463761807542568
0.0532271521996546
0.0601324763487062
0.0672142056357297
0.0745968735263404
0.0824069674978624
0.0907637526430173
0.0997535386439482
0.109389272992506
0.11956573819346
0.130024666751251
0.140342960097224
0.149951615500743
0.158185059243042
0.164353311054872
0.167824924413317
0.168107328845061
0.164912350601823
0.158197621952393
0.148178606571482
0.135310045933259
0.120239030790516
0.103734883567359
0.0866043022691657
0.0696036403899638
0.0533624654234904
0.0383318898117016
0.0247664219613633
0.0127396801540629
0.00218501823730182
-0.00705385934554884
-0.0151769733906198
-0.0223957634874769
-0.0289156689227574
-0.0349290042496143
-0.0406112826886737
-0.0461154103054265
-0.0515616383500549
-0.0570247627876294
-0.0625220120139692
-0.0680050723699655
-0.0733588191000922
-0.0784083653382989
-0.082934806988135
-0.0866983317596511
-0.089465905716872
-0.0910404140118204
-0.0912888015437284
-0.0901676021329822
-0.0877445271253026
-0.0842139922610975
-0.0799024535814863
-0.0752572982411824
-0.0708131873656993
-0.0671338906766242
-0.0647348128748372
-0.0639985087682059
-0.0650997263437874
-0.0679567511640161
-0.0722221553777983
-0.0773192995905711
-0.0825224718606453
-0.0870698026372459
-0.0902901598779961
-0.0917196432905773
-0.0911827449486263
-0.0888199077363673
-0.0850558935296066
-0.0805172883761332
-0.0759176458161548
-0.0719331935819365
-0.0690914624045779
-0.0676910918160448
-0.0677646106593825
-0.069088369644912
-0.0712361364222183
-0.073665823527553
-0.0758230813607597
-0.077242370677578
-0.0776269283135738
-0.0768936772596959
-0.0751761249628396
-0.072786015289
-0.070141806123781
-0.0676778703714591
-0.0657516811239713
-0.0645668313262763
-0.0641276783194883
-0.0642363446200669
-0.0645342945087529
-0.0645799230147256
-0.0639439175241845
-0.0622992854116413
-0.0594846134495919
-0.0555265400054148
-0.0506181204291187
-0.0450606271669719
-0.039184542513296
-0.0332696013588
-0.0274836942832736
-0.0218565007401279
-0.0162957394578538
-0.0106426080135271
-0.00475138263849048
0.00142935985732451
0.00779695137747769
0.0140728905106882
0.0198246814789496
0.0245246510956691
0.0276302146855363
0.0286676536865956
0.0273056760097204
0.0234123512215794
0.0170947447560755
0.00872176624832762
-0.00107264440182144
-0.0114144389443142
-0.0212548078966485
-0.0294864795221321
-0.0351118001866847
-0.0374465841873334
-0.0363236016443988
-0.0322424702498307
-0.0264060277092024
-0.0205930216884385
-0.0168450061362062
-0.016988211177353
-0.0220612340638678
-0.0317664076467329
-0.0440942366424883
-0.0552727808050755
-0.0601559448090887
-0.053082339141052
-0.0291178283928274
0.0145370990412858
0.0773028623530448
0.154509531037652
0.237530234819532
0.314900776633379
0.374313920938497
0.405105666943843
0.40064897063183
0.360020135064881
0.288447120259428
0.196362747967102
0.097275106270004
0.00500097400109518
-0.0690287917069033
-0.117739912643211
-0.139253894432923
-0.136525027005514
-0.116018514638348
-0.0858745413439061
-0.0540536302622383
-0.0268732146487942
-0.00817469415502079
0.000832831231794923
0.00116735658542297
-0.00468041788158321
-0.0136131672876072
-0.0227011639426164
-0.0297307008660617
-0.0334729438369987
-0.0336896745576036
-0.0309402518695842
-0.0262760643204306
-0.0209081517513952
-0.0159173018847122
-0.0120512639339975
-0.00962776799843739
-0.00854010168874516
-0.00834620812506782
-0.00841188300524214
-0.0080726978614804
-0.00677872937303456
-0.00419282530993367
-0.000226686937458236
0.00498405051538297
0.0111495171109448
0.0179152130849866
0.0249465392867635
0.0319905216032515
0.0389073780320012
0.0456732643084052
0.0523601848728277
0.0591005775791513
0.0660445423654228
0.0733180218867712
0.0809898849777753
0.0890537321160149
0.0974258841370937
0.105955556204933
0.114439456910583
0.122633627705009
0.130260034881513
0.137010823897865
0.14255561333291
0.146555937890479
0.148687758683292
0.148669904110796
0.146294358471389
0.141453702781989
0.134161582568379
0.124563256370891
0.112934467306423
0.0996680252452493
0.0852487638016084
0.0702186580273588
0.0551344528184248
0.040520557302981
0.0268211239481902
0.0143572141807292
0.00329653214260754
-0.00635698196679947
-0.0147488391082973
-0.0221344693825685
-0.02881948010817
-0.0350899823782903
-0.0411465897343523
-0.0470561474542196
-0.0527331097316117
-0.0579581325840068
-0.062434520455211
-0.0658736119027344
-0.0680900385072428
-0.0690809438215507
-0.0690633747264938
-0.0684526649786178
-0.0677802853834334
-0.06756794338141
-0.0681894535454246
-0.0697577242246305
-0.0720692759424581
-0.074624925383577
-0.0767264857212382
-0.0776299772450557
-0.0767206623858109
-0.0736685331232801
-0.0685267657720126
-0.061748910401622
-0.0541195475127006
-0.0466131621384473
-0.040212185709997
-0.0357234140291829
-0.0336306301679265
-0.034011800860525
-0.0365350880322477
-0.0405322742276999
-0.0451333608014898
-0.0494342943388928
-0.052663401384832
-0.0543130382798187
-0.0542117647818232
-0.052527508616483
-0.0497093739053407
-0.0463887045903171
-0.0432639977540362
-0.0409895399324903
-0.0400793159919188
-0.0408317571405786
-0.043279998775732
-0.0471749798573438
-0.0520106436077805
-0.057097251755308
-0.0616786836796707
-0.0650754357693577
-0.0668232938829399
-0.0667744732356858
-0.065135682228879
-0.0624336614124608
-0.0594176564424301
-0.05692333285134
-0.0557286575319151
-0.0564282362629175
-0.0593423867164156
-0.0644669663822763
-0.0714639314335882
-0.0796911156530714
-0.0882700468419826
-0.0961890547618244
-0.102433078063319
-0.10612244400187
-0.106635223157624
-0.103687291545471
-0.0973534160694934
-0.088028575297544
-0.0763446598824024
-0.0630669398336937
-0.0489938922383996
-0.0348751130848391
-0.0213515318028567
-0.00891666841636203
0.00210103919080769
0.011531159038424
0.0193260817654945
0.0255014094340153
0.0300665563957045
0.0329689568170151
0.0340760465624263
0.0332096218516816
0.0302298030221508
0.0251470472846522
0.0182274090059453
0.0100528229473823
0.0015054547271752
-0.00633832006747511
-0.0123961013009376
-0.0158177672353653
-0.0162227645487621
-0.0138758576131806
-0.00974359767278928
-0.0053891158375503
-0.00268980033448016
-0.00339881525211384
-0.00861337446216207
-0.0182538941903611
-0.0306888188895958
-0.0426466876325878
-0.0495264889224747
-0.0461433934404713
-0.0278374259144768
0.00824898047681256
0.0620175782527498
0.129716941165568
0.203983055113885
0.274753752448374
0.330974473946872
0.362776635122461
0.363629330236905
0.331910174502773
0.271450487117872
0.190868062534873
0.101832701850499
0.0167051941994283
-0.0538512316274588
-0.102714961997409
-0.127223956361439
-0.129063199881608
-0.113285870348725
-0.0868156509798341
-0.05683979364195
-0.0294516891367642
-0.00877584427437149
0.00334424397425007
0.00715122123252243
0.00442093934757379
-0.00225962492745585
-0.0102026148754573
-0.0171790156811139
-0.0217496194230973
-0.0233521833888455
-0.0221827714333196
-0.0189436928698173
-0.0145433766569637
-0.0098267126688438
-0.00539232347723012
-0.00152215257580607
0.00178352100250544
0.00469812465920797
0.00743388123499904
0.0101258236864715
0.0127687000173459
0.015221185136456
0.0172703876197916
0.0187322508227696
0.0195541859918045
0.0198865175818019
0.0200984438537947
0.0207300985214711
0.0223908690761707
0.025629776039392
0.0308116427622938
0.0380311860019064
0.0470871700640277
0.0575231817970283
0.0687242924045301
0.0800445680848682
0.0909331017073156
0.10102754477937
0.110192977182316
0.118497800361723
0.126133821517071
0.133301008766032
0.140085426682323
0.146360478697747
0.151737345493656
0.155581211715864
0.1570962597197
0.15546642795699
0.150024306054833
0.140411436488274
0.126692630759545
0.109395638794891
0.0894641957536643
0.068132816124578
0.0467495758954447
0.0265834692585522
0.00865405366304862
-0.0063858385185024
-0.0182963082630001
-0.027223319376707
-0.0336114309754144
-0.0380805605037874
-0.0412957518875298
-0.0438565864285397
-0.0462240375976755
-0.0486897117082765
-0.0513802522105906
-0.0542830421420094
-0.0572798720037807
-0.0601806572412024
-0.0627556100271352
-0.0647681769414316
-0.0660107916100947
-0.0663414437096181
-0.0657141753564519
-0.0641949156295351
-0.0619574695652674
-0.0592610499803038
-0.0564164366043475
-0.0537497023396844
-0.0515701105611483
-0.0501441074251359
-0.0496732789315268
-0.0502733066363885
-0.0519537579893435
-0.0546028036599696
-0.0579837690490734
-0.061750318868655
-0.0654839954271756
-0.0687521205496248
-0.0711767045971887
-0.0724986307129021
-0.0726195991429315
-0.0716091039975177
-0.0696737688627895
-0.0670979988762111
-0.0641740620470372
-0.0611432758191773
-0.058166416022547
-0.0553314461180444
-0.0526931332691607
-0.0503264557087907
-0.0483685478171597
-0.0470259681128659
-0.0465362448025158
-0.0470912992997379
-0.0487478359068068
-0.0513583605622412
-0.0545524108411534
-0.0577822964068916
-0.0604264600874669
-0.0619238562896567
-0.0619018970415979
-0.0602627561200235
-0.0572066116732279
-0.053189315576134
-0.048828649195937
-0.0447831111275218
-0.0416291878691079
-0.0397592833785235
-0.0393161918968519
-0.0401736857459029
-0.0419667534385923
-0.0441679920487048
-0.0461980101404983
-0.0475488882387353
-0.0478937482012064
-0.0471553876721722
-0.0455146712244201
-0.0433542839770931
-0.0411512522307193
-0.0393456832301479
-0.0382183927593248
-0.0378060874914308
-0.03787300684881
-0.0379461349567731
-0.0374090127346668
-0.0356373316034748
-0.0321490537851156
-0.026735424275185
-0.0195402055944963
-0.0110647199465232
-0.00209432341686551
0.00643754744994812
0.0136154366864002
0.0186989006442834
0.0212355251162583
0.0211085426714596
0.0185166556304724
0.0139020437843578
0.00785417282292262
0.00101840310492243
-0.00597013275246786
-0.0125221206674332
-0.0181107279397722
-0.0222928966561296
-0.024759040856745
-0.025420109784466
-0.0245149572381142
-0.0226940948780181
-0.0210206642412269
-0.0208354117235485
-0.0234628606632947
-0.0297858041241866
-0.0397717646214421
-0.0520806426817707
-0.0639005029314796
-0.0711364623059641
-0.069012110623366
-0.0530409445683543
-0.0202072999392431
0.0299059434092563
0.0943562459743542
0.166730582375372
0.237847984886532
0.297242773238427
0.335169909750582
0.34468503293885
0.323269975767275
0.273546231150225
0.20284157111777
0.121688561192761
0.0416357082878975
-0.0270622095964468
-0.0772999789758659
-0.106111840926706
-0.114649420590806
-0.107278001333608
-0.0901257674509553
-0.0695062114542506
-0.0505966696114825
-0.0366275189246127
-0.0286679627730643
-0.025937089505789
-0.026460409107743
-0.0278489325807428
-0.0279965180019557
-0.0255536863075793
-0.0201180543725771
-0.0121598036304693
-0.00275803437287873
0.00674883005040201
0.0150989837708269
0.0213569929926017
0.0250428155853293
0.0261416912723433
0.0250223668167013
0.022303604005954
0.0187089749615513
0.0149409634007107
0.0115919893088869
0.00909666455979023
0.00771954887907356
0.00756753257124328
0.00861605397211245
0.0107424156080941
0.0137644128668959
0.0174847498179829
0.0217396651781979
0.0264452575318233
0.0316303456407865
0.0374432545897361
0.0441233965946973
0.0519369750453052
0.0610875149363812
0.0716223716654729
0.0833618658088739
0.095875595096038
0.108520153577957
0.120535673754744
0.13117987127933
0.139864249971109
0.146253696385483
0.150299958941697
0.152198904074452
0.152284918027625
0.150895663403998
0.148249515694749
0.144372883181037
0.139097356911406
0.132124021277784
0.123132312206332
0.11189959777643
0.0983976868223439
0.0828423480544784
0.0656870524890926
0.0475669947711657
0.0292102114902609
0.0113380669943077
-0.00542244886084173
-0.0205970094449576
-0.0338840826132672
-0.0451387764603678
-0.0543318594543842
-0.0615015418938602
-0.0667163403598517
-0.0700617585574972
-0.0716530170108342
-0.0716646615488759
-0.0703601239927558
-0.0681029495960237
-0.0653370330414476
-0.0625346859735695
-0.0601251904371425
-0.0584265662129834
-0.0576037282231955
-0.0576658793904893
-0.058499909547522
-0.0599227476484768
-0.0617302284184007
-0.0637247498491234
-0.0657159245913751
-0.0675018459693748
-0.0688477405671895
-0.0694804818620317
-0.069111742729366
-0.0674915053686652
-0.0644803027418269
-0.060117345676195
-0.0546578643279939
-0.0485599217857111
-0.0424170851443478
-0.0368522068852569
-0.0324011363023897
-0.0294179119281152
-0.0280244015368926
-0.0281120770068246
-0.0293886825398984
-0.0314532673283327
-0.0338803625549492
-0.0362958089227189
-0.0384307704132242
-0.0401461735404962
-0.0414268221788229
-0.0423513812863213
-0.0430493786620419
-0.043657963851706
-0.0442889700439589
-0.0450115802579444
-0.0458497129876686
-0.0467888678221682
-0.0477862332246521
-0.0487798540561839
-0.0496957639102085
-0.0504544102928507
-0.0509782790011175
-0.0512011570173313
-0.0510771234594876
-0.0505861468202418
-0.0497342728872949
-0.0485490563858901
-0.0470733364294753
-0.0453614310769894
-0.0434809161456682
-0.0415203144184753
-0.0395988610815015
-0.0378708205099434
-0.0365158426847553
-0.0357097390745126
-0.035576458423976
-0.0361304885636187
-0.0372268007314743
-0.0385389530048605
-0.0395816731414357
-0.0397820568377521
-0.0385876874476527
-0.0355868406887048
-0.0306105577295248
-0.0237906448859884
-0.0155600163613369
-0.0065978291292442
0.0022641317600669
0.0101501040436498
0.0162418427784659
0.0198598641205941
0.0205237654482564
0.0180002367439846
0.0123476093627443
0.00395576554923499
-0.00643446234171478
-0.0177582535912696
-0.0287239525297081
-0.0379889141253269
-0.0443982959476602
-0.0472454750875885
-0.0464940152528947
-0.0428955130907619
-0.0379479345962376
-0.0336641994395969
-0.0321574915741386
-0.0350935637705614
-0.043104867167983
-0.0552976254719126
-0.0689996817721426
-0.0798826460008344
-0.0825381957611749
-0.0714944511148287
-0.0425359101524639
0.00593336908830578
0.0718297547630769
0.148987369055171
0.227668830906956
0.296042253022169
0.342408244896364
0.357701848770831
0.337639337327608
0.283904666644569
0.203995650765741
0.109719170223883
0.0147163773514039
-0.0683267874964359
-0.130067540015938
-0.165939108475811
-0.176386562886648
-0.166005546654568
-0.141946519203768
-0.112067826349767
-0.0832937423050006
-0.0604972132449264
-0.0460411841202473
-0.0399349622470878
-0.0404340100331395
-0.0448519498766948
-0.0503611705396795
-0.0546160944017402
-0.0561146586328784
-0.0542925979755561
-0.0494033289599402
-0.0422662505001447
-0.0339699390230928
-0.0256014266230951
-0.0180477887898386
-0.0118895741299592
-0.00738208005690152
-0.00450270846000487
-0.00303264120459185
-0.00264050093329552
-0.00294427458504033
-0.00354243306135782
-0.00402058140178756
-0.00395046814773037
-0.00289978417180221
-0.000463565288516683
0.00368467441243547
0.00973514665149391
0.0176952075204503
0.0273696193559038
0.0383764845911076
0.0501993186071862
0.0622678263541907
0.0740535937010842
0.0851625963158722
0.0954045894665202
0.104821169721054
0.113661092726819
0.122303294246672
0.131142052546946
0.140460118332211
0.150320529634312
0.160504522891233
0.170511782467774
0.179622718797482
0.187005523200685
0.191839592036052
0.193425749780246
0.191262431127323
0.185081540800018
0.174852054474725
0.160767686813415
0.143233747132664
0.122858835693882
0.100444989931171
0.0769621571547209
0.0534935112867474
0.0311467774403475
0.0109396437897388
-0.00632071108686777
-0.0201378905316755
-0.0303826904383927
-0.0372917572060049
-0.0414077712594394
-0.0434729465750729
-0.0442970643389031
-0.0446262566898071
-0.0450380796514226
-0.045881423823529
-0.0472678170382326
-0.0491073847914889
-0.051173116528287
-0.0531748357250442
-0.0548290524716984
-0.0559178576621229
-0.0563334499591149
-0.0561031948678898
-0.0553872905817714
-0.0544427433395439
-0.053555470419878
-0.0529540160523548
-0.0527281460756151
-0.0527786380964404
-0.0528185299508138
-0.0524320351434956
-0.0511798394462383
-0.0487246360973605
-0.0449432479175175
-0.0399934064459682
-0.034313709046439
-0.0285521464697596
-0.0234377135191645
-0.0196255050393461
-0.017553424233881
-0.0173457600218184
-0.0187863782148152
-0.0213662255172004
-0.0243921466844519
-0.0271316628769516
-0.028963097060341
-0.0295011023054045
-0.0286728580959699
-0.026729724764629
-0.024192387350263
-0.0217417825226696
-0.0200795150306165
-0.0197872242295635
-0.021213505674254
-0.0244099057222341
-0.0291258104342522
-0.0348588257317021
-0.0409461453842669
-0.0466760038314032
-0.0513974247839816
-0.0546105889979637
-0.0560276172949676
-0.0556014908712528
-0.0535259639194399
-0.0502101775274071
-0.0462297287750798
-0.0422545259948688
-0.0389557725385796
-0.0369004813137015
-0.0364496778745478
-0.0376814796003753
-0.0403586881813459
-0.0439519314103446
-0.0477169865349367
-0.0508131174453966
-0.0524409791843464
-0.0519749599187163
-0.0490659880156811
-0.043696615260665
-0.0361796467931921
-0.0271031463367055
-0.0172362813738078
-0.00741932173612131
0.00153645228711729
0.00891951726709973
0.0141537823539917
0.0168088013399597
0.0166044252025435
0.0134301041784985
0.00738841925397278
-0.00114560150576026
-0.0114758042669729
-0.022582656884229
-0.0331985425019003
-0.0419733313827183
-0.0477160113531261
-0.049670103438384
-0.0477593430821607
-0.0427325046926104
-0.0361459846376022
-0.0301490699539303
-0.0270753554762649
-0.0288884749482867
-0.036574201580437
-0.0496059262704786
-0.0656275134290146
-0.080487622985954
-0.0887153641890258
-0.0844456918236149
-0.0626909828460598
-0.0207337556061168
0.0406808364921153
0.116705422330484
0.198591692479681
0.274852478808335
0.333260461119705
0.363301268446647
0.358510087940111
0.318078949647434
0.24726529009204
0.156436892368683
0.0589647204591566
-0.0315021454383687
-0.103687798221578
-0.150631850231571
-0.170525297436335
-0.166367349099007
-0.144673166704432
-0.113658800117929
-0.0813843428293357
-0.0542620877465936
-0.0361788663604597
-0.0282980501635767
-0.0294465527825212
-0.0368867113859866
-0.0472329034522617
-0.0572922766140407
-0.0646710961191609
-0.0680710517795104
-0.0672821216207114
-0.0629432442764425
-0.0561782453964108
-0.0482188997035281
-0.0401046046956656
-0.0325099818813163
-0.0257104153091174
-0.01966102651491
-0.0141427202758826
-0.00892183691321403
-0.00387643023957506
0.000941573491982989
0.00531813411014196
0.0089518914366114
0.0115652140830254
0.0130171792844521
0.0133863071130106
0.0130010504354924
0.0124106627440054
0.0123043222650993
0.0133987851504996
0.0163211336821641
0.0215115333827184
0.0291625443819684
0.0392004496171139
0.0513044932656844
0.0649541525916506
0.0794928192937613
0.0941975362248423
0.108347037298384
0.121282590121663
0.132457374420906
0.141470892952664
0.148085923969498
0.152226829778304
0.153959430845154
0.153454349638253
0.15093804636181
0.146638532030019
0.140735342950831
0.133324961665222
0.124412149944457
0.113933126475544
0.101808183082804
0.0880118858817268
0.0726424441296066
0.0559707069217977
0.0384536563765773
0.020705853657699
0.00343308146877945
-0.0126573868601023
-0.0269491295131394
-0.0389904849414636
-0.0485348297928443
-0.0555422722024739
-0.0601494258381692
-0.0626228232190888
-0.0633137532741941
-0.0626266530957035
-0.0610025504528903
-0.0589088017876576
-0.0568212909049585
-0.0551877749999046
-0.0543706980461475
-0.0545807886144462
-0.0558228811259238
-0.0578769589747705
-0.0603288077430426
-0.0626492099992861
-0.0643043723158382
-0.0648692477149966
-0.06411365482016
-0.0620393820124904
-0.0588616931907414
-0.0549450544104051
-0.0507148454286692
-0.0465709977400809
-0.0428253661891749
-0.0396741365342403
-0.0372038061653169
-0.0354192210812736
-0.0342781678682448
-0.0337191975303131
-0.0336752819337976
-0.0340726810759433
-0.0348199161755065
-0.0357948522026907
-0.0368383692511082
-0.0377613756287379
-0.0383683562337747
-0.0384953027638521
-0.0380534035765166
-0.0370645441904372
-0.0356736452409974
-0.0341281200834265
-0.0327254017826917
-0.0317416719432898
-0.0313630615670819
-0.0316403057705543
-0.0324790594539128
-0.033665674221735
-0.0349185211266809
-0.0359510984037084
-0.036533960516541
-0.0365449699013723
-0.0359996974070456
-0.0350558581920078
-0.033988222666574
-0.0331346314884359
-0.0328203799561367
-0.0332762354599835
-0.0345710723304146
-0.0365793885294732
-0.0389953836444083
-0.0413914812360345
-0.0433054615105149
-0.0443320551303289
-0.0441949035662617
-0.0427823804249528
-0.0401419067592728
-0.0364378829154684
-0.031886355639724
-0.0266849348325235
-0.0209584190369164
-0.0147371399632183
-0.00797570917764591
-0.000607437487127167
0.00738120840886284
0.0158776317919419
0.0245928368367998
0.0330493471988884
0.0406135670878159
0.0465687118132008
0.0502157919831884
0.0509845866485814
0.0485350387267414
0.0428323259166058
0.0341848883754645
0.0232412613149126
0.0109459435086316
-0.00154410408187751
-0.012980943038359
-0.0221828031124458
-0.0282195726293425
-0.0306083251248585
-0.0294845930277901
-0.0256995844770944
-0.0207871589206905
-0.0167553138875585
-0.0156892058679376
-0.0192038158669489
-0.0278438664510421
-0.0405788107764406
-0.0545612810381676
-0.0652929931395279
-0.0672689048594387
-0.0550580751754369
-0.0246502822379705
0.0252168231940971
0.0920974361336421
0.169569735535942
0.247865611597034
0.315397189324319
0.360931656114172
0.375945796312022
0.356577040390737
0.304637182413732
0.227376848922121
0.136026467859393
0.0434837762390096
-0.0382508688017226
-0.100250661207216
-0.137965191842413
-0.151447030343375
-0.144600606853289
-0.123777590751219
-0.0961416126379162
-0.0681970138350569
-0.0447583011785872
-0.0284806513702332
-0.019924198544062
-0.0180175013023465
-0.0207318830887813
-0.0257766493383643
-0.0311640372763578
-0.0355552404892215
-0.0383665295976195
-0.0396715808963728
-0.0399727178815896
-0.0399264777083868
-0.0400997495856034
-0.0408079240389912
-0.0420549948465802
-0.0435663724375163
-0.044884716366611
-0.0454904767770294
-0.0449123316803088
-0.0428056339683939
-0.0389935243277492
-0.0334785143806161
-0.0264373699907315
-0.0182085831320777
-0.00927287088822553
-0.000218378327917036
0.00832063788246925
0.0157564587438199
0.0216625683741697
0.0258856148518439
0.0286209298698577
0.0304202130431296
0.0321144950992899
0.0346589609841651
0.0389316690290403
0.0455362269917454
0.0546609656921146
0.0660317966108483
0.0789680164887684
0.092520247251872
0.105648370933222
0.117391622847878
0.126993065909741
0.133960203668295
0.138063704354097
0.139290685566577
0.137775698931934
0.133732216801479
0.127401675688639
0.11902818944047
0.108857806551727
0.0971542471906823
0.0842197385971197
0.0704100500083362
0.056136454887
0.0418524102040703
0.0280268905474442
0.0151082087867502
0.0034825302026323
-0.00656815069556729
-0.0149022911579399
-0.0215412908731651
-0.026669538069783
-0.0306055350141441
-0.0337437563842054
-0.0364761021132498
-0.0391103435955774
-0.0418062940508939
-0.0445467064428311
-0.0471509873152918
-0.0493292778827625
-0.0507653090426009
-0.0512104320437322
-0.0505688059304515
-0.0489542668825638
-0.0467024873535236
-0.0443287202796309
-0.0424331457600567
-0.0415712533636868
-0.0421204711044621
-0.0441798436545804
-0.0475332626654919
-0.0516895961200395
-0.0559903709788803
-0.0597554454397221
-0.0624271417631443
-0.0636771039217038
-0.0634546739251182
-0.0619734524064241
-0.0596470493593931
-0.0569928365402612
-0.0545245589533079
-0.0526534280257364
-0.0516147972606346
-0.0514338517134206
-0.0519375288623199
-0.0528103696026478
-0.0536810741596546
-0.0542181663629552
-0.0542106410992681
-0.0536135768687283
-0.0525481151365328
-0.0512574396039507
-0.0500320525880961
-0.0491252186467227
-0.0486809528456656
-0.0486928103804482
-0.0490037129374505
-0.049346812499722
-0.0494168635823168
-0.0489535172302516
-0.0478149569815479
-0.046023037783456
-0.0437681809492115
-0.0413716907055207
-0.0392130655988221
-0.0376384064880108
-0.0368712158905097
-0.0369473591798076
-0.0376913209860646
-0.0387417319715636
-0.0396223521147651
-0.0398435625225668
-0.0390122384955589
-0.0369259920907156
-0.0336304567635761
-0.0294245634913234
-0.0248083664653842
-0.020380228125806
-0.0167027863618995
-0.0141668492083895
-0.0128862483696576
-0.0126525713130971
-0.0129657759601153
-0.013137120549143
-0.0124405157870371
-0.0102747244963585
-0.00629664618998729
-0.000495273639008405
0.00680712075437123
0.0150210630026121
0.0234021684619343
0.0311800247198464
0.037673482542888
0.0423687495372692
0.0449487895110359
0.045277771388208
0.0433586191389579
0.0392898423894635
0.0332458240552602
0.0254923410241395
0.0164302232316207
0.00664171699732491
-0.00309575146874419
-0.0118594874772201
-0.0187077967027671
-0.0228687821271178
-0.0239521835605864
-0.022127695593984
-0.0182092074509041
-0.0135950845183401
-0.0100392216652755
-0.00926335487572516
-0.0124634253682985
-0.0198049693295421
-0.0300347944172646
-0.0403460142161787
-0.0466089764358747
-0.0440162123839464
-0.028090578851846
0.00410967227389737
0.0528571006636813
0.11501236623191
0.183960963441411
0.250389456426174
0.303853047541903
0.334848499635001
0.336913103465652
0.30819747678176
0.252054722520296
0.17644121828407
0.0922605320865444
0.0110862680906458
-0.0571357646919995
-0.10583378941328
-0.132631261131554
-0.139157392002647
-0.130035748380814
-0.111418942821978
-0.0894858605854349
-0.0692475579828163
-0.0538632940063216
-0.0445041428837532
-0.0406658050448631
-0.0407531161534669
-0.0427420565556281
-0.0447577799590517
-0.045467162413633
-0.0442499382474099
-0.041167889099463
-0.0367883026626259
-0.031933994463534
-0.0274301712659524
-0.0239032323131339
-0.0216639341051293
-0.020683033315379
-0.0206468849241034
-0.021066916338256
-0.021411147518796
-0.021226877379493
-0.020229740052969
-0.0183438856541247
-0.0156891222169955
-0.0125216685441959
-0.00914446864741651
-0.00580954730762199
-0.00263680961045819
0.000430364164068667
0.00362164917223247
0.00728906940518921
0.011820855803075
0.0175402172493793
0.0246138300472471
0.0329940436263731
0.0424123147721331
0.052429840314689
0.0625362858752771
0.0722718829023198
0.081337163242331
0.0896541796370807
0.0973560245098944
0.104704434115551
0.111959794522767
0.119244588592208
0.126443982025502
0.133174968266531
0.138833187519395
0.142702850107
0.144098353322249
0.142500454019887
0.137655031263833
0.129615374964782
0.118724853922234
0.105550753366271
0.0907886902111841
0.0751599309882657
0.0593225244478289
0.043812221273851
0.0290207231813857
0.0152081906590517
0.00253761275267204
-0.00888575563354277
-0.0189848555218308
-0.0276995319141456
-0.0349933312989361
-0.0408709941751291
-0.0453956732686107
-0.0486956934431603
-0.050954800707393
-0.0523857534813131
-0.0531934361056708
-0.0535387639085922
-0.0535162024947716
-0.053154136099546
-0.0524394261378598
-0.0513584524334891
-0.0499403086411651
-0.0482860729138812
-0.0465720223220884
-0.0450232458011259
-0.0438643104393599
-0.0432616346023978
-0.0432754193952089
-0.0438368444002054
-0.0447594693446953
-0.0457837872500601
-0.0466431883487217
-0.0471319604660446
-0.0471546924030009
-0.0467424690797806
-0.046032488152485
-0.0452200253386097
-0.0445002660750117
-0.0440190453583333
-0.0438459656050865
-0.0439740449870082
-0.0443412892907732
-0.0448639841798167
-0.0454695716376922
-0.0461183958541592
-0.0468079959728281
-0.0475600815213203
-0.0483970146402267
-0.0493191034833532
-0.0502940372420319
-0.0512645072843046
-0.0521713283185722
-0.0529816735555766
-0.0537097037882317
-0.054420741533826
-0.0552171869755747
-0.0562106511454855
-0.0574882262803008
-0.059081327102863
-0.0609438080818029
-0.0629432492440126
-0.0648670280540509
-0.066444025880565
-0.0673826552610501
-0.0674242253616505
-0.0664061738639767
-0.0643230707013724
-0.0613670980566559
-0.0579277781317487
-0.0545369004284232
-0.0517600358956878
-0.0500566529143248
-0.0496480047105326
-0.0504365081886913
-0.0520076933981455
-0.0537190038738752
-0.0548491511466667
-0.0547608851786405
-0.053028471258415
-0.0494985908141336
-0.0442800349410757
-0.0376807314645461
-0.0301220434950947
-0.0220587836031322
-0.0139231494823745
-0.00609786587636623
0.00108653363631333
0.00734052723810009
0.0124012389688819
0.016023492241821
0.017982061500561
0.0180881797222149
0.0162208384319949
0.0123706218177248
0.00668989393449061
-0.000462192636280286
-0.00849693061229943
-0.0166156550285449
-0.0238893074142732
-0.0294048816216644
-0.0324660882495338
-0.0328105333091188
-0.0307837399008468
-0.0274020236066082
-0.0242483812229091
-0.02317775945388
-0.0258540593518302
-0.0331920976863504
-0.0448233536187999
-0.058733174666864
-0.0712171568210648
-0.077265782397391
-0.0714054692430694
-0.0489084171305744
-0.00715537968278289
0.0531690450558943
0.127408172879161
0.207092439374311
0.281059860127086
0.337423472098962
0.366004817056942
0.360654467990842
0.320834092366029
0.251982023655424
0.164500399270925
0.0715920541734032
-0.0134930157766148
-0.0800856244533833
-0.121953624083118
-0.137999729572525
-0.131761231562794
-0.109986427716221
-0.0807547869376164
-0.0516430641851421
-0.0283379109110973
-0.0139133719075827
-0.00879572888454689
-0.0112817881939207
-0.0183870770814703
-0.0267794188856208
-0.0335870462890613
-0.0369385832216079
-0.0361743368273547
-0.0317465726598469
-0.0248874450594018
-0.0171588174028062
-0.0100052974761848
-0.00441259448407768
-0.000734822414787472
0.00129308567035274
0.00238718084931994
0.00345377525831153
0.00531483793353353
0.00849233962479168
0.0131005925983242
0.0188621837268609
0.0252297637183869
0.031570565747548
0.0373579976544892
0.0423171820679286
0.0464878542330064
0.0501936796550108
0.0539342037005173
0.0582364704496464
0.0635121730728102
0.0699610098101031
0.077544028610881
0.0860279857005965
0.0950801546433618
0.104378586719631
0.113699553880433
0.122953240378739
0.132158161716593
0.141367253519378
0.150575202161916
0.159641276347152
0.168254079345032
0.175948396357928
0.182166109902396
0.186339684966966
0.187972713492309
0.186697988931439
0.182305629138528
0.17474601779336
0.164120021375512
0.150669685228804
0.134776618840927
0.116965485271371
0.0979013327365515
0.0783664284106333
0.0592064860749615
0.0412463589061379
0.0251879843387802
0.0115139367507824
0.000423407814928097
-0.00817912462125878
-0.0146373500360174
-0.0194512726911642
-0.0231658897013887
-0.0262699476724873
-0.0291275921782662
-0.031952082115312
-0.0348165599288367
-0.0376879751619435
-0.040468716844999
-0.0430343831741874
-0.0452620727886232
-0.0470490417906093
-0.0483247366692108
-0.0490589688179393
-0.0492660702392155
-0.0490021913046752
-0.0483533601384586
-0.0474157110996046
-0.0462739151365469
-0.0449863214479584
-0.0435838888076591
-0.0420846634068884
-0.0405183873964882
-0.0389504111573846
-0.0374935918136517
-0.036301689967153
-0.0355453797472699
-0.0353788216176883
-0.0359081126836659
-0.0371716187915467
-0.0391368146772295
-0.0417113801520894
-0.0447613276881828
-0.0481280019169051
-0.0516386925730909
-0.0551105611394228
-0.0583523104578966
-0.0611702090040917
-0.0633832443304019
-0.0648470900074989
-0.065481220784197
-0.065290913355117
-0.06437694429599
-0.0629295001243281
-0.0612074818693188
-0.0595083236721722
-0.0581351071246743
-0.0573666282195128
-0.0574333305900286
-0.0584994597815963
-0.0606502404549205
-0.0638822218542089
-0.0680953699354112
-0.0730875175173457
-0.0785549025980441
-0.0841048444399548
-0.0892863067106656
-0.0936407070688242
-0.0967695741386317
-0.0984088933851871
-0.0984942761280498
-0.0971989315818525
-0.0949295182216681
-0.0922730567719041
-0.0898992493112121
-0.0884340699863649
-0.0883294729713572
-0.089757783948722
-0.0925561934251925
-0.0962371162571783
-0.100066209284
-0.103194786438544
-0.104820878994777
-0.104346433999248
-0.101498522781156
-0.0963891100916296
-0.0894992151678141
-0.081588071781777
-0.0735448970260978
-0.066216686992883
-0.0602544926952081
-0.0560179678014302
-0.0535624328345248
-0.0527079292420636
-0.0531634475558957
-0.0546611752304791
-0.0570526483199628
-0.0603326343662226
-0.0645821881543745
-0.0698506991634263
-0.0760193952225734
-0.0826995243252628
-0.0892136813826255
-0.0946880801740258
-0.0982509927693402
-0.0992962092693271
-0.0977402686223983
-0.0941877344799663
-0.08992641282336
-0.086705934466043
-0.0863047043854646
-0.0899526511545323
-0.0977368744207785
-0.108157231360779
-0.118001670989948
-0.122664895996133
-0.116939617905441
-0.0961840330334
-0.0576418252440018
-0.00159793916354174
0.0679709055380385
0.143523716336157
0.214970782867333
0.271458637481776
0.303569673444783
0.305413978273778
0.276060497979926
0.219893640441178
0.145762776137569
0.0651297155493372
-0.0103017435429564
-0.0708650548785983
-0.11057405305076
-0.127802862718807
-0.124961187855238
-0.107380779944434
-0.0817868255497813
-0.0547608420886161
-0.0315265678674514
-0.0152508877128669
-0.00689810217145796
-0.00554884883869217
-0.00901819376126975
-0.014585030276188
-0.0196664230271009
-0.02231887522671
-0.0215071583450688
-0.0171372736007806
-0.0098941255451481
-0.000951648411091951
0.00836698833041302
0.0169059782763903
0.0239120092047788
0.029151028184445
0.032894472814446
0.03578826998194
0.0386413492714174
0.0421878011786154
0.0468829550460135
0.0527848926495615
0.0595502519126442
0.0665426791739286
0.073022507240611
0.0783652575905133
0.0822501202977665
0.0847694349725599
0.0864330331910099
0.0880695674942028
0.0906521554060136
0.095091596176619
0.102044447613341
0.111776164673742
0.124104748827278
0.138432590807388
0.153857242516496
0.169337662818773
0.183881954304612
0.196717133612516
0.207403128081702
0.215863522510981
0.222324251418368
0.22717521458349
0.230792317911521
0.233370850733084
0.234819745232349
0.234749781184447
0.232562102883443
0.227614220750922
0.219417282384211
0.207808093479829
0.193046160264454
0.175808362810528
0.157084498809942
0.138005555450285
0.119653655178547
0.102902868955226
0.0883245981934185
0.076167290544233
0.0663978395946996
0.0587786936808782
0.0529527227049295
0.0485149406636532
0.045061680882423
0.0422187304951409
0.0396562381929883
0.037098651728431
0.0343345302377642
0.0312271606134007
0.0277244284001384
0.0238651366789774
0.0197780456853038
0.0156692663656902
0.0117941648692502
0.00841268891034996
0.00573235640695431
0.00384978865223634
0.00270663396480345
0.00207586935810912
0.00158879183520213
0.000803254286110524
-0.000697327017731321
-0.0031946065152714
-0.00674266250991115
-0.0111199316642086
-0.0158464372067173
-0.0202721382264714
-0.0237227087074411
-0.0256703091049489
-0.0258853196860389
-0.0245256434457495
-0.0221341739535578
-0.0195385826957227
-0.0176738540695193
-0.0173697230575784
-0.0191562287040406
-0.023137087706017
-0.0289626791914952
-0.0359074948336467
-0.0430297394982304
-0.0493715929928468
-0.0541521133036141
-0.0569112343608331
-0.057579342362183
-0.0564664789496394
-0.0541822608972142
-0.0515088179126478
-0.0492542893508845
-0.0481146085516631
-0.0485668934852013
-0.0508095088541142
-0.0547538115071037
-0.0600631824790879
-0.0662276179046736
-0.0726574874950262
-0.078778714891605
-0.0841139158377836
-0.0883389593983034
-0.0913100991618078
-0.0930619186949751
-0.0937804333916208
-0.0937584368964908
-0.0933411551255381
-0.0928698684894224
-0.0926305686739122
-0.0928145139904557
-0.0934969506871156
-0.0946380292487093
-0.0961055254218507
-0.0977129023003597
-0.0992603663618003
-0.100564176248357
-0.101463741992301
-0.101806904388306
-0.101426327150799
-0.100127064837981
-0.0977023785985937
-0.0939822545775032
-0.0889022152690895
-0.0825668365367388
-0.0752799202633998
-0.0675238278136134
-0.0598897430410088
-0.052979802248217
-0.0473126305232412
-0.0432616379278852
-0.041041635020462
-0.0407395953586584
-0.0423676765684543
-0.0459079195063871
-0.0513215730535571
-0.0585104349881763
-0.0672384270300465
-0.0770424903804052
-0.0871756355245657
-0.0966253484234973
-0.10423478167751
-0.108924690141695
-0.109978211204005
-0.107318791108119
-0.101694909926166
-0.0946917743003556
-0.0885209734459171
-0.0855878278168372
-0.0878923109834004
-0.096372395744048
-0.110338488409923
-0.127163545573881
-0.142374588848714
-0.150230308155061
-0.144767574303748
-0.121171186099032
-0.0771950731047726
-0.0142797437763322
0.0619898292862465
0.142336019153353
0.215195809187522
0.268869871856488
0.293958164265955
0.28548563424
0.244145199500116
0.176288817794796
0.0926313476811546
0.00599132075122094
-0.0713436198262151
-0.129959181836285
-0.164820271265305
-0.175666107354726
-0.166338006787874
-0.143346008686405
-0.114121226385004
-0.0854015129543752
-0.0620845271249704
-0.0467070118877657
-0.0395305987127067
-0.0390793115451387
-0.0429060732325373
-0.0483654562477115
-0.0532216267851893
-0.0559998482538694
-0.0560720217118226
-0.0535312321055295
-0.0489456373024627
-0.0430865759272105
-0.0367053735329386
-0.0303984260544246
-0.0245631647692613
-0.0194198553992475
-0.0150624256768942
-0.0115052929898011
-0.00870682862243607
-0.00656651152856156
-0.00490620584628093
-0.00345291714994833
-0.00183998839970834
0.00036268472666889
0.00358892533935526
0.00819795945604965
0.0143981527114877
0.0221973311800724
0.0313990533321515
0.0416506048606008
0.0525313175431216
0.0636553877243071
0.0747567226851032
0.085727312726827
0.0965952799007234
0.10745015699986
0.118343255859227
0.129201513420799
0.139788821327327
0.149730591115365
0.158592166856055
0.165979984192544
0.171625414287928
0.175418904063437
0.177382878784746
0.17759707617337
0.176109344103778
0.172870655317639
0.167722660097113
0.160444008214905
0.150838063053322
0.138829981131433
0.124540356716709
0.108313411725033
0.0906936805660734
0.0723601110948234
0.0540365114537157
0.0364007428820243
0.0200124731145523
0.00527247767591743
-0.00758253311442555
-0.0184548907794136
-0.0273435307047251
-0.0343002727008756
-0.039399224592321
-0.042727957948332
-0.0444013461604924
-0.044590883977003
-0.0435555303037914
-0.0416569309985584
-0.0393445915353038
-0.03710566744564
-0.0353871533937263
-0.0345106811748143
-0.0346064560774841
-0.0355892800563901
-0.0371864839211313
-0.0390101006808564
-0.0406511596314147
-0.0417680341245513
-0.0421446591456211
-0.0417059758567325
-0.0404929087766216
-0.0386122544433043
-0.0361834299530195
-0.033302313919196
-0.0300340256368848
-0.0264348112662784
-0.022591792795084
-0.0186616181994201
-0.0148879017679267
-0.0115836040122628
-0.00907613054427999
-0.00762608778176319
-0.00734137310554948
-0.00811330970182585
-0.00959875785666641
-0.011261766681709
-0.0124732953158045
-0.012651782090031
-0.0114139879938765
-0.0086972565258666
-0.00481467526375127
-0.000416933243978636
0.00364141535711381
0.00650410211102423
0.00753148097660619
0.00647205718632278
0.00353356115801538
-0.000671702568973733
-0.00529376104837542
-0.00947488513414498
-0.0125728605929522
-0.0143098201430611
-0.0148027065326331
-0.0144703433936383
-0.0138534353037788
-0.0134126420290573
-0.0133749557785309
-0.0136781938283189
-0.0140261691914476
-0.0140277554355808
-0.0133658917686213
-0.0119359188101091
-0.00990633826414269
-0.00768189266429602
-0.0057789577836207
-0.00464860148149385
-0.00449818633975986
-0.00516490962422122
-0.0060829522700283
-0.00636210019428466
-0.00496576640602036
-0.0009483489946224
0.00630632783093867
0.0169063489864513
0.0303790520882128
0.0457228603772281
0.0615700600707448
0.0764202940359782
0.0888898383362214
0.0979216559630438
0.102915045496451
0.103757458828931
0.100767880241583
0.0945830795071532
0.0860285596013178
0.0760118026538192
0.0654575961192883
0.0552803374845953
0.0463670349973981
0.039537358978613
0.0354573241307921
0.0345067233006677
0.0366280820994866
0.0412068446124979
0.0470410521876522
0.0524499235228072
0.0555449573670965
0.0546488057548983
0.0488027828528501
0.0382615985310383
0.0248439881026817
0.0120023085772248
0.00450345208657141
0.00768209778178566
0.0263295920839566
0.0633989768005838
0.118808248196998
0.188673503575787
0.265270454453256
0.337893971619373
0.394575072102386
0.424368059386501
0.419708480963194
0.37824480156078
0.303620899423868
0.204936123442217
0.0949691198496431
-0.0123964808859003
-0.104885423571687
-0.174010016461721
-0.216231031864893
-0.232930656414223
-0.229353952830415
-0.212912143724263
-0.191334375789603
-0.171105204572247
-0.15647546374544
-0.149145766528946
-0.148551549598814
-0.152563020127937
-0.158364640980228
-0.163289882350423
-0.165441177959371
-0.164002815388555
-0.159236744254229
-0.152221351649313
-0.144439135158286
-0.13733513248419
-0.131954807623774
-0.128734755419563
-0.127473183110143
-0.127461714944675
-0.12772532592247
-0.127298899512364
-0.125468923895885
-0.121925398446067
-0.116796706990889
-0.11057125830884
-0.103936384871106
-0.0975815937372162
-0.0920167964783299
-0.0874469004278715
-0.0837259737680909
-0.0803932504254956
-0.0767752408913561
-0.0721265215104019
-0.0657774916448505
-0.0572601241353839
-0.0463906837812144
-0.033298648297486
-0.0184011187419724
-0.00233094300380618
0.0141654502737216
0.0303387949280874
0.0455329581412274
0.0592468812328016
0.0711528373397523
0.0810739727880254
0.0889354805424782
0.0947094971749616
0.0983719618608564
0.0998822270448008
0.0991874240106339
0.0962465645594831
0.0910647878895515
0.083726013159079
0.0744132064736382
0.0634098879697622
0.0510830160717667
0.0378533776586312
0.0241628723334296
0.0104475957191567
-0.00287838409526197
-0.0154295716900856
-0.0268519233470461
-0.0368296613724159
-0.0451011930957109
-0.0514841046038517
-0.0559032907921291
-0.0584119983388646
-0.0591952020150567
-0.0585492714453032
-0.0568395737808217
-0.0544449099477776
-0.0517017319387369
-0.048861372096527
-0.0460705533310024
-0.0433795544569988
-0.0407742163405832
-0.0382196590599485
-0.0356986313136092
-0.0332289325976784
-0.0308530359079123
-0.0286059473116925
-0.0264784687773336
-0.0243964255033879
-0.0222301019172166
-0.0198353878056671
-0.0171148797773693
-0.0140782826693063
-0.0108793500842383
-0.00781187772650525
-0.00525883354548329
-0.00360336324834547
-0.00312342734490895
-0.00389891936633622
-0.00575896983790096
-0.00828773560475598
-0.0108915860859953
-0.0129137099890494
-0.0137691783878698
-0.0130683435455312
-0.0107000884186458
-0.00685723232746405
-0.00200104200725963
0.00322409246633903
0.00810544750142017
0.0119833877546907
0.0143597538007098
0.0149792057711997
0.0138747428985297
0.0113718934168166
0.00804768970428578
0.00464288605389229
0.00193224539690158
0.000569294806287281
0.000935351076227882
0.00303103021284411
0.00644563808603995
0.0104237877290779
0.0140228066929289
0.0163270036848769
0.0166653507279383
0.014774932158686
0.0108653741973984
0.0055654133709211
-0.000235569993958897
-0.0056092280400142
-0.009813060877306
-0.0124567679958896
-0.0135648689331294
-0.0135197102002928
-0.0129026122306426
-0.0122794936884674
-0.0119933608945079
-0.0120250991054736
-0.0119657846442225
-0.0111128120395779
-0.00866668942307061
-0.00397493317399016
0.00324694888450484
0.0127834957772348
0.023917474948386
0.0355602113582277
0.0464756932079453
0.0555320608211265
0.0619077014003732
0.0651965505276927
0.0653925113337542
0.062773857647196
0.057740729129976
0.050671486348503
0.0418528611262612
0.0315079287002038
0.0199046650816835
0.00749054797258518
-0.00501971555831685
-0.0166663166385556
-0.0264023209485409
-0.0333614743268967
-0.0371609246078895
-0.0381358013629508
-0.037406137033185
-0.0367122948131229
-0.0380133978458184
-0.0429094676224128
-0.0520072101041002
-0.0643888497561211
-0.0773523113079318
-0.0865613856433921
-0.0866737262792324
-0.0724083636907118
-0.0398891331896143
0.0120161338732529
0.0807114803436007
0.159582532809562
0.238623011229027
0.305990536648928
0.350244124636098
0.362780338828726
0.339858520365568
0.283651272623332
0.201985206961284
0.106790490473118
0.0116424796215012
-0.0709707538081404
-0.131969392320247
-0.167061114111013
-0.176944182996448
-0.166428126229771
-0.142823512245458
-0.114077397520954
-0.0871128020926176
-0.0667010558514701
-0.0550103583694919
-0.0517909332981504
-0.0550219881686277
-0.0617807658796857
-0.0690982881711239
-0.0746221336587627
-0.0769885786614453
-0.0758903414973307
-0.0718939752639542
-0.0661029078630635
-0.0597756163107707
-0.0539957574134075
-0.0494587481554369
-0.0463979561314175
-0.0446357738070699
-0.0437197068673836
-0.0430939783248077
-0.0422604259304886
-0.0408940972207367
-0.0388945078933321
-0.0363692591850965
-0.0335601771745547
-0.0307327448433753
-0.0280573575761982
-0.0255144687080606
-0.0228522373671385
-0.01961311637772
-0.0152266159729179
-0.00914472389650674
-0.000981748210127827
0.00938178035676387
0.0217593359779099
0.0356894308273566
0.0505224932689357
0.0655350452188891
0.0800404273919498
0.0934729389933706
0.105435176919592
0.115710865704845
0.124252608648351
0.131154025936974
0.13661119582914
0.140873963672099
0.144187198046024
0.14672607718959
0.148535748526983
0.149490447052968
0.149287001483943
0.147481593216407
0.143568547534916
0.137089013197452
0.127748312041375
0.11551567834775
0.100681297927474
0.0838541821406974
0.0658985411147577
0.0478211169244159
0.0306325940953822
0.015210397690769
0.0021879927625332
-0.00811140988640709
-0.0156887723643237
-0.0208326961878556
-0.024042179537422
-0.0259235819256898
-0.0270793487563338
-0.0280061009334049
-0.0290174053792542
-0.0302028841729523
-0.0314310471575501
-0.0323978777008606
-0.0327158714688285
-0.032029253042811
-0.030132413298975
-0.0270629961568378
-0.0231415388604763
-0.0189386597150226
-0.0151685738600814
-0.0125299979847691
-0.0115346190700497
-0.0123715816735433
-0.0148495746814578
-0.0184367883849945
-0.0223894498807982
-0.0259322806215752
-0.0284396302435154
-0.0295692674342804
-0.0293187514001904
-0.0279985360608
-0.0261378827812342
-0.0243536616158179
-0.0232160009661085
-0.0231393562708164
-0.0243163026628641
-0.0266987467776164
-0.0300211268602724
-0.0338546218681002
-0.0376805670689519
-0.0409732936468516
-0.0432842124650874
-0.0443177327706367
-0.0439863060032886
-0.0424302662731639
-0.0399920999446211
-0.0371453573634295
-0.0343926474688806
-0.0321589944435833
-0.0307100587816952
-0.0301168403259662
-0.0302728912310009
-0.0309539317852252
-0.0318991556147995
-0.0328905017458545
-0.0338097449120283
-0.0346613905635819
-0.035559599527393
-0.0366867378857364
-0.0382370986229059
-0.0403609016051847
-0.0431213580821406
-0.0464725888628388
-0.0502601758240024
-0.0542410412565406
-0.0581163662258477
-0.0615700523329836
-0.0643049940938212
-0.0660704010895869
-0.0666764707130077
-0.065997512125372
-0.0639690553812003
-0.0605862431326446
-0.0559088964485897
-0.0500735971817311
-0.0433068570854209
-0.035929080098901
-0.0283395706188538
-0.0209789520906069
-0.0142745749618236
-0.00858287770114336
-0.00414685596908114
-0.00108461364356324
0.000584381306106217
0.000883440189502185
-0.000183864661333124
-0.00267206436815039
-0.00668153551919991
-0.0122864315581917
-0.0194192862289115
-0.0277538223866846
-0.0366409635438864
-0.0451466190683064
-0.0522123748842804
-0.0569188663274401
-0.0587888442974308
-0.0580366405883589
-0.0556645411025253
-0.0533306098296428
-0.0529648932587612
-0.0561816719382579
-0.0636085135325624
-0.0743089582551675
-0.0854949872483363
-0.0926928412214742
-0.0904373652187856
-0.0734379421090164
-0.0380113248689217
0.0165471084053862
0.0870390062965958
0.16622683166896
0.243671708622957
0.307489302838165
0.346698664828901
0.353624320876725
0.325731240308469
0.266373595793649
0.184211370721736
0.0914173064302779
0.00113910009847075
-0.0751202488246701
-0.12955237290795
-0.159078012229608
-0.165236974567912
-0.153118854792847
-0.129735341007372
-0.102304203822862
-0.0768463521338071
-0.0573392122531402
-0.0454853723548049
-0.0409997955872843
-0.0422247871429645
-0.0468569514472294
-0.0526022444047614
-0.057640907946766
-0.0608587717025785
-0.0618646613037479
-0.0608532285804512
-0.0583862102148444
-0.0551590713702099
-0.0518034822806586
-0.0487562450714313
-0.0462054969313632
-0.0441067368133518
-0.0422463873708737
-0.0403223303360628
-0.0380123496175813
-0.035013418906248
-0.031052990099719
-0.0258890488874894
-0.0193202381663049
-0.0112185415959198
-0.00158029826045056
0.00942405872268911
0.0214274553011331
0.0338909687534683
0.0461806017717077
0.0576819425430159
0.0679243875744086
0.0766821402157501
0.0840251714514114
0.0903067100534817
0.0960901095300452
0.102032586890985
0.108752529293174
0.116708750034708
0.126114674194339
0.136900278244495
0.148722709642587
0.161016070998125
0.173064903743424
0.184085859684835
0.193306313026766
0.200033688872954
0.203712413171201
0.20396635535792
0.200624581914117
0.193728397256941
0.183519053386532
0.170408639458188
0.154940423418321
0.137746737899422
0.119510538551664
0.100932011471409
0.0826973290580933
0.0654457776896757
0.0497345596063626
0.0360054379486954
0.0245602298097935
0.0155499356626934
0.00897574092244069
0.00469421778226916
0.0024193559285805
0.00172171605866107
0.00203541170300229
0.00268965047626501
0.0029780379708008
0.0022652658905252
0.000111931805279733
-0.0036173803062351
-0.00870157414408284
-0.0145936131338279
-0.0205385424498658
-0.0257561104092007
-0.0296426829339623
-0.0319366842585875
-0.0327977751773929
-0.0327723003987514
-0.0326502364073589
-0.0332514207129407
-0.0352002140925574
-0.0387509208778037
-0.0437108774348328
-0.0494801208531981
-0.0551953922731518
-0.0599404824585257
-0.0629696132635524
-0.0638876925911799
-0.0627416394499692
-0.0599996956107536
-0.0564261661136849
-0.0528886876445662
-0.0501539622148611
-0.0487289029464367
-0.0487864386819087
-0.0501851710267856
-0.0525614143596843
-0.0554528523068309
-0.0584113499253864
-0.0610763357953182
-0.0632015979969339
-0.0646477121537775
-0.0653621153474714
-0.0653661768699333
-0.0647564522444245
-0.0637129737796671
-0.0624986576800214
-0.0614349928332468
-0.0608495438805546
-0.0610056104310217
-0.0620363181796418
-0.0639078838930761
-0.0664278291769837
-0.0692977515765135
-0.0721945381433329
-0.0748548645702813
-0.0771376795980892
-0.0790469128239577
-0.0807087406295654
-0.0823104757023408
-0.0840180944030944
-0.0858949069965181
-0.0878445773002157
-0.0895970697902605
-0.0907454864757674
-0.0908267694003796
-0.0894250564353469
-0.0862692313403821
-0.0812988042753021
-0.0746827916851916
-0.0667899937580485
-0.0581213014405325
-0.0492225143052727
-0.0405990082511697
-0.0326523720182185
-0.0256544967336926
-0.0197659978746188
-0.0150930602283769
-0.011762460407886
-0.00998410450376177
-0.0100691984562689
-0.0123823718457764
-0.0172262281046948
-0.0246821362547682
-0.0344540284757706
-0.0457737836463302
-0.0574209162438252
-0.0678844130279447
-0.0756553563341295
-0.0795952247865813
-0.0792892905558902
-0.0752795895115717
-0.0690847811270755
-0.0629545835032351
-0.0593673862192817
-0.0603494308996607
-0.0667573591899037
-0.0777056282352331
-0.0903208989784257
-0.0999590619376646
-0.10093016728027
-0.087656644534332
-0.0560648917588004
-0.00490999504230969
0.0633104865072031
0.142159961601025
0.221960590648816
0.291356169745283
0.339470723555176
0.358187948586751
0.343981334083148
0.29879257646009
0.229688198038682
0.147358783694612
0.063852189285612
-0.00986312887543865
-0.0658948899105566
-0.100544745114786
-0.114387761920772
-0.111439888326949
-0.097744321247541
-0.0797894786769758
-0.063134566654128
-0.0514996806809526
-0.0464241825718358
-0.0474533104049491
-0.0527079063775608
-0.0596389453330816
-0.06576721986192
-0.0692496650104692
-0.0691815593973304
-0.0656193671576863
-0.059374510128389
-0.0516707669307843
-0.0437711274604484
-0.0366657253666825
-0.0308801563815568
-0.026425609088887
-0.0228789934007213
-0.0195574053646178
-0.0157375141883256
-0.0108664849070193
-0.00471659902226106
0.00255021456498173
0.0104214682424254
0.0181671936126226
0.0250354895843699
0.0304631913032815
0.0342487781980745
0.0366416279072385
0.0383207077074615
0.0402632094907489
0.04353264859638
0.0490376862926093
0.0573201550269329
0.0684217116595844
0.0818574588526305
0.0966989836903115
0.111745457223817
0.125744674421657
0.137618569479083
0.146649416446372
0.152591502590042
0.155686617609307
0.156579121690308
0.156146030539895
0.155276199720176
0.154645915544072
0.154542021939379
0.154775719185738
0.154710590342356
0.153401283755999
0.149812154623349
0.143066131263499
0.132667977935403
0.11865319152678
0.101630926968431
0.0827120721602022
0.0633368780337465
0.0450357782146528
0.0291691159933668
0.0166952387723038
0.00801183967201515
0.00290309202487298
0.000606138787060169
-1.31406213848575e-05
-0.000209884857438931
-0.00109025630678351
-0.00338429863650733
-0.00731502739844034
-0.0125921314051657
-0.0185259370360431
-0.0242274578173566
-0.0288415487337892
-0.0317559670115147
-0.0327390648053652
-0.0319793502447351
-0.0300253863485131
-0.0276479102974873
-0.0256623406309685
-0.0247557644716079
-0.025357049941954
-0.0275737230248953
-0.0311996415356182
-0.0357798102485723
-0.0407080779116325
-0.0453318580866547
-0.0490440791480065
-0.0513525601049209
-0.0519261416806812
-0.0506215139623652
-0.047494205354849
-0.0427939478106349
-0.0369416388955762
-0.030484474430371
-0.0240285872988762
-0.0181546482161831
-0.0133294075271419
-0.00983144553819095
-0.00770929581468633
-0.00678395470174544
-0.00669731222654355
-0.00699614221915542
-0.00723157062566594
-0.0070501514746924
-0.00625676760216795
-0.00483970858146862
-0.00295958965037692
-0.000911584055640365
0.000927150932588361
0.00215499702720059
0.00240240780537001
0.00138452968724145
-0.00105269678091244
-0.00489779881110135
-0.00995812799257904
-0.0158721336851083
-0.0221556222028244
-0.0282804684494859
-0.0337729805870245
-0.0383084463664334
-0.0417741168715652
-0.0442785979753432
-0.0461000888637758
-0.0475840697715974
-0.0490169785848696
-0.0505113819862705
-0.0519373102109833
-0.0529235063557797
-0.0529339447517443
-0.051403788297485
-0.0479005306705592
-0.0422660177648359
-0.0346977447160649
-0.025743986750649
-0.0162124426799446
-0.00701802144267208
0.000986158012265429
0.00714573090705307
0.011072919137451
0.0126339653635417
0.0118758551435836
0.00893488307500834
0.00397363048300234
-0.00282400737251962
-0.0112003573476384
-0.0207450666317589
-0.0308383756516849
-0.0406624126418035
-0.0493039034572339
-0.0559380700602265
-0.0600508131367695
-0.0616349432243833
-0.0612920488679263
-0.0601857429708607
-0.0598219518292755
-0.0616722177830744
-0.066699671365587
-0.0748866955556667
-0.0848895894222176
-0.0939484751603334
-0.0981507597596174
-0.0930799894797802
-0.0747858711736746
-0.0409047458555256
0.00832786789523699
0.0694667308099787
0.135899603042211
0.198665767279786
0.247978521661621
0.275167672223316
0.27459373574846
0.245033396188694
0.190133559028213
0.117767303771942
0.0384311855794713
-0.0369036858951076
-0.0989307971114244
-0.141614139969104
-0.16292450228019
-0.164635652179976
-0.151360745496271
-0.129171145406424
-0.104181490346707
-0.0814186487636095
-0.0641592361213634
-0.0537707115459456
-0.0499675305428238
-0.0513219533775214
-0.0558539972954458
-0.0615551544512674
-0.0667561509864924
-0.0703102308160273
-0.0716143728177841
-0.0705216602483808
-0.0672060535310438
-0.0620302909753541
-0.0554469087846752
-0.0479401789307337
-0.0399996858350116
-0.0321076132749314
-0.024721566353766
-0.0182407485053604
-0.0129532103384607
-0.0089737183654301
-0.00619241473048106
-0.00425880468902131
-0.00261952431976113
-0.000612496997138113
0.00239937315518276
0.00688697945188886
0.0130435367988069
0.0207338506792385
0.0295195928111015
0.0387556981019313
0.047734760368378
0.0558449857358477
0.0627049793345069
0.068245064025154
0.0727180910723015
0.0766393773160332
0.080670796259572
0.0854741303852586
0.0915622461821878
0.099174714803344
0.108199049275047
0.118151039216295
0.128218510216104
0.137362883714466
0.144463047741535
0.148477936069116
0.148600322598427
0.144376467247186
0.135773806207489
0.123189121665381
0.107399615350123
0.0894672241114043
0.0706115298673784
0.052068686171504
0.0349537345693694
0.020142515103663
0.00818705089966365
-0.000726022934409533
-0.00677054521951835
-0.0104321173524834
-0.0124226963415653
-0.0135684276358406
-0.0146832014689421
-0.0164432480908833
-0.0192804986311028
-0.0233131890008774
-0.0283298941443573
-0.0338364353599341
-0.0391634088528854
-0.0436171556991576
-0.0466428078145238
-0.047959592237984
-0.0476304186629493
-0.0460423079649271
-0.0437992500547537
-0.0415566956851232
-0.0398463248359966
-0.0389430975908845
-0.0388127681955053
-0.0391523036874728
-0.0395068302972569
-0.0394242622698582
-0.0385996725281051
-0.036967696603673
-0.0347193400358903
-0.032243012533283
-0.0300117055836807
-0.0284530071917447
-0.0278415976157211
-0.0282438729131854
-0.0295252858030132
-0.0314103928828434
-0.0335708182499481
-0.0357115491239259
-0.0376313288347571
-0.0392451238171815
-0.0405703062051655
-0.0416881000542826
-0.0426954278029457
-0.043660373641834
-0.044589838881579
-0.0454134604050421
-0.0459851864485909
-0.0461028869912418
-0.0455451441208611
-0.0441210650710796
-0.0417239828216559
-0.0383760459438687
-0.03425075514701
-0.0296651268039336
-0.0250409000514698
-0.0208426076342058
-0.0175065267429098
-0.0153759099832922
-0.0146538177574917
-0.0153776958157282
-0.0174134876548017
-0.0204642714233927
-0.0240894584400081
-0.0277340093598665
-0.0307705660509285
-0.0325583021896274
-0.0325191213699607
-0.0302252946418888
-0.0254854047223746
-0.0184106099773162
-0.00944309032137217
0.000665725490748921
0.0109287772256882
0.0202383391748592
0.0275034885757554
0.0317897179963408
0.0324443960863183
0.0291970800220064
0.0222261258805346
0.0121813281051781
0.000148650985848128
-0.0124576005059551
-0.0240823179134207
-0.0332860802800588
-0.0390349560330862
-0.0409644442078744
-0.039545963403523
-0.036090017933469
-0.0325456431127902
-0.0310967049678521
-0.033603961719052
-0.0409885777721835
-0.0526898726277749
-0.0663487908469065
-0.0778583036385896
-0.0818727933375995
-0.0727775881605805
-0.04599749481197
0.000604856637576406
0.0655852786839044
0.143393225207719
0.22474359632171
0.297967473625156
0.351157928203009
0.374664324933414
0.363320352020647
0.317793425320857
0.244642232735129
0.155018193245773
0.0623331655128796
-0.0204952362212984
-0.0835167118324378
-0.121360272284519
-0.133687885640404
-0.124525499210793
-0.10078360344384
-0.0704287164785163
-0.0407708170037615
-0.017217652279069
-0.0026695780163525
0.00245257320555735
-0.000307331007372432
-0.00822435349872333
-0.0182215050068304
-0.0275655814308978
-0.0343226716497912
-0.0375418889518407
-0.0371989522090749
-0.0339716774853191
-0.0289346482061398
-0.0232540523628438
-0.0179430122428567
-0.0137102308320295
-0.0109072412688286
-0.00955766585490423
-0.00943920067211034
-0.0101859235032222
-0.0113828928391569
-0.0126340727036936
-0.0135958155636529
-0.0139790537498243
-0.0135318890209903
-0.0120190402385582
-0.00921468608560903
-0.00491982966944831
0.00099530756407592
0.00853627381168468
0.0175389996095431
0.0276577074158138
0.0384006356101506
0.0492109354826458
0.05957181101168
0.0691039695551384
0.0776252328042472
0.0851557831343192
0.0918712200157382
0.0980212388430885
0.103839191562525
0.109466176384117
0.114905001485534
0.120008609491058
0.124498718082958
0.128005813567776
0.130120488455323
0.130446470165784
0.128646813694545
0.124477207357557
0.117804196873466
0.108610113522844
0.0969892373200039
0.0831406508539683
0.06736211247066
0.0500461267876772
0.0316753855108626
0.0128121960280794
-0.00592291771151864
-0.0238849553075289
-0.0404478210115051
-0.0550513711151354
-0.0672451376990677
-0.0767234858777653
-0.0833503878192684
-0.0871745137317272
-0.0884348209782843
-0.0875536600524212
-0.0851113542183944
-0.0817963533430928
-0.0783300144514603
-0.0753739083138028
-0.0734366829583802
-0.0728020605667492
-0.0734964657522717
-0.0753050980752053
-0.0778329349136128
-0.0805960733708913
-0.0831214083835662
-0.0850306298060649
-0.086089259752291
-0.0862125262274993
-0.0854339581762198
-0.0838544091209665
-0.0815939012899094
-0.0787641190026384
-0.0754677120123889
-0.0718177122347241
-0.0679626795275416
-0.0641032349585844
-0.0604910473415934
-0.0574079184664447
-0.055127961873819
-0.0538698124927305
-0.0537485385208491
-0.0547380335486207
-0.0566536403838088
-0.059161514073304
-0.0618161414565359
-0.0641215516500128
-0.0656067704918666
-0.0659032071757259
-0.0648106920045333
-0.0623391766288761
-0.0587154051784975
-0.0543497666777365
-0.049767792565975
-0.0455201303238931
-0.0420903575604874
-0.0398198465494614
-0.0388635968294294
-0.039182257588526
-0.0405658926729979
-0.0426774340216033
-0.0451008234229483
-0.0473814352748515
-0.0490535017501003
-0.0496584884994532
-0.0487659128496728
-0.0460095956360503
-0.0411454275762148
-0.0341236223775547
-0.0251554405161596
-0.0147483934535831
-0.00368875719488504
0.00703529819152604
0.0163583427986307
0.0232844260296002
0.0270265418249721
0.0271163113628306
0.0234735181276405
0.0164354165673379
0.0067491441064084
-0.00447379006664501
-0.015850171410258
-0.0258783157345663
-0.0331574473239937
-0.0366564861181235
-0.0359848836049632
-0.0315916145730848
-0.0248093086811761
-0.0176781061839911
-0.0125298955782949
-0.0113801162679516
-0.0152442728448038
-0.0235484839710466
-0.0338189695145154
-0.0418032492879367
-0.042095546604332
-0.0292220069804884
0.000989246577377532
0.0500415423589732
0.115757357592995
0.191953131372395
0.269019379233391
0.33542096616946
0.379880796633042
0.39377992410707
0.373178983785434
0.319902796957704
0.241346451458093
0.149005246058427
0.0560933227269547
-0.0251299217559035
-0.0856489665282792
-0.121070390237308
-0.131855209598647
-0.122494440416373
-0.0999705979583391
-0.0719686787178439
-0.045278803792382
-0.0247036595308452
-0.012604185646579
-0.00904348473310847
-0.0123628656300296
-0.019964948829998
-0.0290858264161063
-0.0373944243930724
-0.0433371391501259
-0.0462243858332397
-0.0461144203446078
-0.0435795489198535
-0.0394407971772081
-0.0345370235583255
-0.0295650322743269
-0.0249992571225779
-0.0210794426891717
-0.0178442140410279
-0.0151864353864126
-0.0129104163094607
-0.0107784262476486
-0.00854202691443087
-0.00596058559900542
-0.00281350286124715
0.00108709873012323
0.00588018251691288
0.011638421427454
0.0183557476383581
0.0259463580402563
0.0342590910798547
0.0431066236704184
0.0523037011039935
0.061704022726776
0.0712234341702421
0.080839293024371
0.090562417091745
0.100387420792574
0.110236578117476
0.119917671936241
0.129114197902168
0.137416323835419
0.144386620525984
0.149641481798339
0.152922480102441
0.154134351432631
0.153337362553862
0.15069762918413
0.146413405039449
0.140642847753714
0.133456999117966
0.124832242562848
0.114683173707691
0.102924176401937
0.0895401448133237
0.0746459986825945
0.0585200965788938
0.0416050943570326
0.0244777437163676
0.00779447829529489
-0.00777827470638921
-0.0216406290815386
-0.0333351880716278
-0.0426140499891276
-0.0494853918444845
-0.0542256607759726
-0.0573454762856302
-0.0595060077520103
-0.0613964450005997
-0.0635976400993684
-0.0664657134905007
-0.0700671000296646
-0.0741824399058508
-0.0783761146201472
-0.0821096110444115
-0.084867285759919
-0.0862646637848392
-0.0861192707019349
-0.0844765494344386
-0.0815936227737646
-0.0778896698869692
-0.0738747047362093
-0.0700701678221839
-0.0669347280055424
-0.064805921169582
-0.0638632649116649
-0.064113794743061
-0.0653986433527546
-0.0674190805486776
-0.0697804720014033
-0.072051203138375
-0.0738302102768711
-0.0748122789064963
-0.0748371561588479
-0.0739097472780438
-0.0721853897293849
-0.0699242635107709
-0.0674280905891256
-0.0649766450004741
-0.0627797827992963
-0.0609538149585363
-0.0595223579197093
-0.0584353765517917
-0.0575982426073045
-0.0569040400048249
-0.056263995481466
-0.0556313192683102
-0.0550141051917025
-0.0544749888303966
-0.0541189729215638
-0.0540744137914217
-0.054473424013962
-0.0554355633683377
-0.0570533800140631
-0.0593734470161587
-0.0623663848702821
-0.0658860058432442
-0.0696287115904487
-0.0731138488609221
-0.0757078421243621
-0.0767059774011688
-0.0754665613454905
-0.0715692657367455
-0.0649531891332315
-0.0559896327393685
-0.0454618662249537
-0.0344525680466461
-0.024167238767585
-0.0157376320691143
-0.0100482016635229
-0.00761407803569103
-0.00852048242568707
-0.0124201671900736
-0.0185814102393683
-0.0259816141822714
-0.0334445795452476
-0.0398176954246245
-0.044176361843039
-0.0460283259460186
-0.0454750325816521
-0.0432773978707546
-0.0407763365555654
-0.0396383430035276
-0.0414339227262137
-0.047106668261296
-0.0564419060077342
-0.0676802598918055
-0.077427581821943
-0.0809780065602224
-0.0730889853101665
-0.0491339567649548
-0.00643089760550964
0.0545620029766
0.129537400588974
0.210419557888321
0.286380518105176
0.345698401873988
0.378104553175107
0.377069089610402
0.341419817138762
0.275819376106863
0.189918470527253
0.0963724587116858
0.00823068411977075
-0.063628933584385
-0.112395026355275
-0.136151722706773
-0.137564449735551
-0.122644231208254
-0.0990059885563913
-0.0740900746874573
-0.0537426501493568
-0.0413948178921749
-0.0378995699062182
-0.0419291958192179
-0.0507345930270879
-0.061031726221309
-0.0698028524090478
-0.0748641674250892
-0.0751347786202204
-0.0706214250950647
-0.0621912635789167
-0.0512322448994895
-0.0392975563962373
-0.0278056782988333
-0.017833886353091
-0.0100132296419537
-0.00451418639766378
-0.00110401533172793
0.000745444392366563
0.0017215376359084
0.00252902237303544
0.00376575113936273
0.00583609058990112
0.00891552777250317
0.0129695705652061
0.0178186210784654
0.0232305827821561
0.0290164361263296
0.0351027561208361
0.0415610719480174
0.0485868516593173
0.0564364891642641
0.0653425978507933
0.0754319578387361
0.0866667274797003
0.0988209510368933
0.11149437848807
0.124157091456843
0.136213524725473
0.147073701008281
0.156221454839007
0.163271905669321
0.168011984432883
0.1704183603346
0.170647882546339
0.168998539982123
0.16584502479051
0.161560824891047
0.156444623904804
0.150669211475102
0.144265438946785
0.137144123254811
0.129148498224636
0.120121977915258
0.109972842852971
0.0987195474446891
0.0865065517533187
0.0735890778994527
0.060294052030633
0.0469711526335505
0.0339493439870413
0.0215093805781504
0.00987418393457857
-0.000788327595923049
-0.0103579726523334
-0.0187564923095513
-0.0259445669071362
-0.0319190748911207
-0.0367070532746267
-0.0403556420209268
-0.0429216579186988
-0.0444663561397878
-0.0450583586506924
-0.0447826482975571
-0.0437498291632664
-0.0420997576641889
-0.0399966658073116
-0.0376171734612278
-0.0351361486795038
-0.032716636702365
-0.0305084059497732
-0.0286557387798477
-0.0273103703878323
-0.0266414239103394
-0.0268324165191543
-0.0280577115954678
-0.0304377785979079
-0.0339821897194981
-0.0385373155197031
-0.0437586714769889
-0.049124538768121
-0.053998328232742
-0.0577338113044646
-0.0598030205196679
-0.0599160920870425
-0.0581001068524728
-0.054712087145766
-0.0503782021542271
-0.0458721288624914
-0.0419634365261111
-0.0392750541676331
-0.0381841310047903
-0.038785160257163
-0.0409145445256795
-0.0442191760205627
-0.0482434420474629
-0.0525110130377211
-0.0565871833972951
-0.0601186950886809
-0.0628554005684897
-0.0646596383851378
-0.0655061377745439
-0.0654705797001782
-0.0647018284841594
-0.0633743281052396
-0.0616246157114377
-0.0594869457041031
-0.0568515765595289
-0.0534690533200859
-0.0490123036846579
-0.0431885573847366
-0.0358726687485117
-0.0272216587355139
-0.017733211488228
-0.00822710307552069
0.000249928497486322
0.00657755561931765
0.00974543963012755
0.00903617026609597
0.00417732229550999
-0.00456584633450731
-0.0163819447638813
-0.0300057167320598
-0.0439113530280692
-0.0565839318572402
-0.0668213158654081
-0.0740008484881909
-0.0782407607232038
-0.0803982165820181
-0.08187366750122
-0.0842311833091142
-0.0886906852714111
-0.0955923318028402
-0.103965996636404
-0.111348988938165
-0.113971921113437
-0.107368799069012
-0.0873661850321946
-0.0512858624124528
0.000912063444117085
0.0658744224795557
0.136787477507383
0.204165251406066
0.257448375578271
0.287122573802124
0.286865231536939
0.255150344352735
0.195834972179443
0.117507211944677
0.0317249322518264
-0.0494010820567838
-0.115642515482664
-0.16049130432658
-0.181992310221732
-0.182475236336128
-0.167393696710046
-0.143681398425669
-0.118091197737262
-0.0959026205621659
-0.0802176206098566
-0.0718771355178563
-0.0698768613545879
-0.0720715624589864
-0.075940569081067
-0.0792299135415208
-0.0803632025453684
-0.0785954225446062
-0.0739491423895558
-0.0670094668512496
-0.0586618309804911
-0.0498426216992608
-0.0413478577667231
-0.0337198772234251
-0.0272118175956361
-0.0218159405430034
-0.0173340396084296
-0.0134657099941864
-0.00989254374459478
-0.00634233623922149
-0.00262568195075544
0.00135430778099723
0.00561283195202749
0.0101073265672048
0.0147691303180487
0.0195392629905068
0.0244036805772552
0.0294206661389414
0.0347317769083588
0.0405502103485235
0.0471262211281083
0.0546958958155494
0.0634241885913741
0.0733538526273552
0.0843694236863693
0.0961821672861994
0.108339585523437
0.120260919511068
0.131296175102006
0.140800370601164
0.148209378804655
0.153102007010923
0.155236323389756
0.154555840885293
0.151170154971114
0.14532111418194
0.137346624706412
0.127649787138835
0.116674283715091
0.104881629387051
0.0927246473559862
0.0806149923094347
0.0688891606633781
0.0577832013555721
0.0474266011483599
0.0378589798318665
0.0290628867712696
0.0209985497109015
0.0136264821820821
0.00691141232923923
0.000811807140743553
-0.00473284923763071
-0.00980460157069507
-0.0144943617446497
-0.018879170285436
-0.023001270291115
-0.0268609318777492
-0.0304288446959014
-0.0336743080017864
-0.0365960924705037
-0.0392382000240229
-0.0416765045333624
-0.0439744289581844
-0.0461215971026538
-0.0479814599903913
-0.0492760622690674
-0.0496259850870235
-0.0486436600731966
-0.0460560179059122
-0.0418173070866034
-0.0361720237254951
-0.029642316822101
-0.0229386363336847
-0.0168175211126863
-0.011926784975386
-0.00868008566017857
-0.00719058290681596
-0.00727377117815002
-0.00851095033246691
-0.0103524027532228
-0.0122341155042908
-0.0136826315240114
-0.0143880210687537
-0.0142337636932384
-0.0132829067200925
-0.0117302610828206
-0.0098382365789885
-0.0078765260231209
-0.00608157091817449
-0.00464179537476759
-0.00370308789268118
-0.00338074367819119
-0.0037623775176268
-0.00489225561309207
-0.00673941585568414
-0.00916485068704114
-0.0119098904658825
-0.0146236951113008
-0.0169329035480004
-0.0185368986935021
-0.0192962513198103
-0.0192775094035577
-0.0187287636711032
-0.0179849628297584
-0.0173303699193741
-0.0168655169931967
-0.0164286784436925
-0.0156057969414763
-0.0138336266226135
-0.0105688443269562
-0.00547259192687506
0.00144589309748895
0.0097693715023528
0.0187124893766803
0.0272483908094933
0.0342877268851652
0.0388680835056529
0.0403174631366616
0.0383686861063825
0.0332147157086662
0.0255025828395867
0.016265372361643
0.0067914228152986
-0.00156717502766515
-0.00763432559260631
-0.0106671969081162
-0.0105792632994542
-0.00806337024766413
-0.00455194195261534
-0.00197617213243749
-0.00233059711829445
-0.00710539775336125
-0.0167024229635614
-0.0299856424528631
-0.0441178763229023
-0.0547963289552844
-0.0569230100130134
-0.0456445227415068
-0.0175874310667774
0.0279750610743357
0.0883334342848408
0.157208808030538
0.225441440402802
0.282475493830728
0.318389219621808
0.326024141153025
0.302674153130636
0.250857789196799
0.177917549363108
0.0945114694915156
0.0123798200658898
-0.0580275485204783
-0.109461061530288
-0.138884658621634
-0.147442102332893
-0.139521072094668
-0.121273591890608
-0.0990332228879659
-0.0780185436831911
-0.0615674089750795
-0.0509657803412434
-0.0457752680110217
-0.0444631740211015
-0.0451108142729907
-0.0460110149269003
-0.0460404777342604
-0.0447783371491352
-0.0424130270384587
-0.0395201667509744
-0.0368021498628046
-0.034863089740644
-0.0340627792758758
-0.0344621088960651
-0.0358484468104161
-0.037816310238568
-0.0398749332753423
-0.0415564968302521
-0.0425039310978544
-0.0425239895709025
-0.0415990717118432
-0.039859430520994
-0.0375253272829467
-0.0348352568653324
-0.0319793871953085
-0.0290547570580316
-0.0260508616758856
-0.022864288528461
-0.0193331351805836
-0.0152785163182089
-0.0105417633768922
-0.0050104678824784
0.00136811601568435
0.00858386382880084
0.016566543667737
0.0251899711257657
0.0342735644964282
0.0435794160807608
0.0528068027839663
0.0615899405060217
0.0695063933041299
0.0761019080076945
0.0809331973384063
0.0836243652799702
0.0839264774975404
0.0817654463036918
0.077263609480776
0.0707261592712215
0.0625930593992104
0.0533665839759276
0.0435306005725519
0.0334782874070785
0.0234606193482287
0.0135615348481883
0.00370069829992255
-0.0063373150511727
-0.0168492423655832
-0.0281384249141621
-0.0404270726220988
-0.053769230749132
-0.0679833387896715
-0.082624793685581
-0.0970141062921326
-0.110324470698894
-0.121716555551349
-0.130493113358569
-0.136236866495961
-0.138896124541335
-0.138795254783296
-0.136568535578077
-0.133038119444122
-0.129070334516186
-0.125444202845613
-0.122754152665912
-0.12135308890665
-0.121330331793038
-0.122515817108418
-0.124506247403938
-0.126714936979642
-0.128448573927652
-0.129008549437009
-0.127804676277543
-0.124460493304918
-0.11888647683263
-0.111302214978603
-0.102199826803604
-0.0922548809134518
-0.0822030308129308
-0.0727073040545917
-0.064241946623968
-0.05701495898813
-0.0509440133161925
-0.0456904625506034
-0.0407454972022637
-0.0355530984999129
-0.0296472527538998
-0.022776440161962
-0.0149879852669239
-0.00665025677796465
0.00159753083901895
0.00896179179398754
0.0146538480222171
0.0180550510314929
0.0188464047665009
0.0170694913460055
0.0131047940775644
0.00757734475307069
0.00121943213428734
-0.00527046332832969
-0.011336457034803
-0.0166192972319222
-0.0209516125210884
-0.0243064838718462
-0.0267202057430473
-0.0282108690983449
-0.0287102475027863
-0.0280211540622405
-0.0258084072982073
-0.0216293100227096
-0.015007355517312
-0.00554738588167142
0.00692049593611308
0.0221953192407174
0.0395969673723585
0.0579373846181614
0.0756035739597281
0.0907613308275773
0.101655986227135
0.106953732668637
0.106045935986252
0.0992375636393425
0.0877608787236562
0.0735918854617947
0.0590913138408563
0.0465347837858483
0.0376291133823268
0.033126206884871
0.032638019531314
0.0347241682236427
0.0372699177099375
0.0381040117642086
0.035736754841133
0.0300461596021363
0.0227202373397281
0.0172879881433543
0.0186435470294624
0.0320794189375718
0.0619755492313905
0.110410960375693
0.176039923302559
0.253575174983166
0.334128872538738
0.406481243760071
0.459108651027548
0.482565996903523
0.471658053418342
0.426818656408274
0.354278174865309
0.264910403707707
0.17201876739401
0.0886231182872754
0.0249362727853414
-0.0133655131239161
-0.0257301790557327
-0.0161578650245848
0.0082531268059366
0.0391850842163471
0.0689146050568826
0.0916693618541499
0.104313902947744
0.106347255145135
0.09935742405846
0.0861721215076378
0.0699617007198145
0.0535021021837492
0.0387196221919921
0.0265456867114398
0.0170327237167271
0.00963556261497492
0.0035497581411604
-0.00198678705112369
-0.00749037231933092
-0.0131499607163598
-0.0188573262763569
-0.0243147323805188
-0.0291750941281388
-0.0331710331659347
-0.0361995094888346
-0.0383439837833094
-0.039833732304323
-0.0409573174329311
-0.0419599302509565
-0.0429577754442693
-0.0438954131712971
-0.044556949182901
-0.0446246774746793
-0.0437648049135918
-0.0417132810204518
-0.0383369194900618
-0.0336541877162071
-0.0278125806876233
-0.0210319304617065
-0.0135328769442698
-0.00547474428915326
0.00307500514788341
0.0121272143573323
0.0217154064583735
0.0318146109963496
0.0422604479360771
0.0526949839893809
0.0625577783089476
0.0711271280526743
0.0776034037040835
0.0812177039729326
0.0813454793967196
0.0776047369274845
0.0699209631695701
0.0585462040504605
0.0440278598848826
0.027132597807217
0.00874027992864838
-0.0102706266112219
-0.0291234299654468
-0.0472114500858322
-0.0641251975926556
-0.0796395345144218
-0.0936701704028185
-0.106214390355485
-0.117293018881149
-0.126908662457498
-0.135029541286941
-0.141600400391478
-0.146574204596028
-0.149952258008205
-0.151817510400659
-0.152347451458301
-0.151799409531578
-0.150470669930359
-0.148645551803609
-0.146547770401526
-0.14431570932161
-0.142009408763234
-0.139644201634524
-0.137233933442125
-0.134823188050674
-0.132494583220933
-0.130350008107506
-0.128477089134882
-0.126918614920139
-0.125660554657744
-0.124644868808266
-0.12380105415405
-0.123080988695723
-0.122479250787894
-0.122026718605444
-0.121756951388755
-0.12165811383905
-0.121632028456163
-0.12148157075885
-0.120937761980546
-0.119723124748704
-0.1176343821207
-0.114619790290456
-0.110825977174344
-0.10659598711161
-0.10241277944563
-0.098797618763122
-0.0961865983119746
-0.0948171122549343
-0.0946564486902635
-0.0953953774061012
-0.0965122386312389
-0.0973929159827865
-0.0974761916404999
-0.0963874179168197
-0.0940274718838763
-0.0905966077942676
-0.0865499591837622
-0.0824977537380334
-0.0790741377471641
-0.0768021154969082
-0.0759798934203513
-0.0766082505300661
-0.0783708423527883
-0.0806702722577834
-0.082713440335436
-0.0836317360470602
-0.0826164955930646
-0.0790485692137602
-0.0726028094701994
-0.0633128317581665
-0.0515871027262092
-0.0381735278527231
-0.0240762351528361
-0.0104345637774371
0.00162138579237438
0.0111228538972791
0.017406244408377
0.0202311976900193
0.0198522859588295
0.0170222319508037
0.0129091108678921
0.00892288938772179
0.00646681385877422
0.00665209677527513
0.0100330521858695
0.0164273478959704
0.0248788268964839
0.0337992940696864
0.0412940353619022
0.0456372132361605
0.0458220129787739
0.0420731779245629
0.0361856301894084
0.0315530763569092
0.0327854987832287
0.0448905655661427
0.0721063080829933
0.116598945413401
0.177342617899447
0.24953312749719
0.324821556263701
0.392478872625548
0.441351255125112
0.462207495073742
0.449903216442744
0.404767662643101
0.33278724792787
0.244479560676132
0.152723953399656
0.0701133787561941
0.00651234539937454
-0.0325887762459935
-0.046597186893346
-0.0392248079351407
-0.0170724015106899
0.0121530754256174
0.0413189267719423
0.0650887938172447
0.0805116556189232
0.0869894833280298
0.0857765627933492
0.0792340481217336
0.0700626354453494
0.0606827450537401
0.0528527043706969
0.0475372342371319
0.0449788851090548
0.0448922639764331
0.0466958667227066
0.0497141836605541
0.0533135568839891
0.0569668703304728
0.0602648436846308
0.0629013102268707
0.0646572936348881
0.0653979954598707
0.0650836786030246
0.0637855881611486
0.061694715973249
0.0591138428345784
0.0564289537855017
0.0540619268154945
0.0524106734628574
0.0517853049529368
0.0523502843162924
0.0540841040984943
0.0567693536940398
0.0600242239910965
0.0633785241854855
0.0663835110026153
0.0687300017442591
0.070340180734757
0.0714006506020198
0.0723190649004093
0.0736103274660397
0.07574255801827
0.0789881665373138
0.0833249725982969
0.0884161256836943
0.09367169985433
0.0983691083760446
0.101793627369919
0.103359639944192
0.102686030373245
0.0996180848664389
0.0942047821637453
0.0866491811804065
0.0772500218422479
0.066347479691604
0.0542796774038008
0.0413526391045359
0.0278254630815941
0.0139122674524839
-0.000199589066464648
-0.0143196345725844
-0.0282217930395337
-0.0416210033862434
-0.0541703053184007
-0.0654855067986853
-0.075196693303486
-0.0830165393009203
-0.0888081446329737
-0.0926328354115603
-0.0947619666341186
-0.0956452950650005
-0.0958396254969318
-0.095911886662685
-0.0963374768277174
-0.0974162436139015
-0.0992252020431427
-0.101619776227755
-0.10428455067397
-0.10682200504424
-0.108857233570417
-0.110132226362192
-0.110566596159549
-0.110271303463679
-0.109514694528175
-0.108652136993643
-0.108038291599639
-0.10794297034879
-0.108488463835348
-0.109620349431437
-0.111116780132012
-0.112633980673279
-0.113779155447828
-0.114197321958692
-0.113655882822614
-0.112109558175574
-0.10972916702209
-0.106882599219193
-0.104066345157264
-0.10179943584879
-0.100504230127408
-0.100405172712175
-0.101473859038935
-0.103436059605776
-0.1058376943897
-0.108149355692939
-0.109879633752725
-0.110668669350185
-0.110342705604845
-0.108923314273892
-0.106596951986782
-0.103658333824692
-0.100443646495386
-0.0972681462355996
-0.0943794465290386
-0.0919337354316938
-0.0899967155727794
-0.0885642547208582
-0.0875914720056991
-0.0870160024305008
-0.0867633336371761
-0.0867294993017304
-0.0867470181662442
-0.0865496966625488
-0.085756247404407
-0.0838894271258337
-0.0804378788924035
-0.0749552784905191
-0.067178849177813
-0.0571397944717183
-0.0452350106962742
-0.0322348868911796
-0.0192153015998201
-0.00741920908802669
0.0019303908064416
0.00783276687337562
0.00968943126186401
0.00742751615334843
0.00154179493080715
-0.00695613373079219
-0.0166779777077291
-0.0260698586731419
-0.033663849432203
-0.0383320572395435
-0.039503459332926
-0.0373060764728977
-0.0326025903809503
-0.0268962001032298
-0.0220962758210061
-0.0201515239900663
-0.0225833909235337
-0.0299841607531618
-0.0415776024420749
-0.054963766544357
-0.0661693012649566
-0.0700891775630339
-0.0613319230778031
-0.0353766994087255
0.0101618956062726
0.0744540769627116
0.152881578744351
0.237233096569896
0.316777579430395
0.380101593503972
0.417360482439643
0.422419718431267
0.394325139708064
0.337674875024482
0.261747649419024
0.178587234733906
0.10053443897083
0.0378352077599733
-0.00310558480276173
-0.0204766403266741
-0.0167662564379896
0.0023635701180095
0.0296550062447662
0.0578676584077905
0.0810851422058945
0.0955126490311396
0.0997160318686272
0.0943777291127649
0.0817212389613724
0.0647826021669822
0.0466943960120602
0.0301087056582552
0.0168337347556689
0.007705441130311
0.00266923636977773
0.00101296529839932
0.00167449782974207
0.0035464431531315
0.00571487971926862
0.00759402840027416
0.00894855279074535
0.00982323479779924
0.0104196437767446
0.0109661200303201
0.0116201123523608
0.0124247597456837
0.0133213061988885
0.0142017810278187
0.0149767609380423
0.0156327664781029
0.0162614248265086
0.017053704648751
0.0182629300033855
0.0201476852418304
0.0229097266889492
0.0266425178547157
0.0313030256650938
0.0367138753288922
0.0425963880513908
0.04862841501954
0.0545146457767104
0.0600521503250777
0.0651721667722464
0.0699423569451906
0.0745225214752681
0.0790798840095211
0.0836840525630407
0.0882113894038843
0.0922892573137803
0.0953017739016596
0.0964637710073144
0.094953404698184
0.0900797022524396
0.0814512335027093
0.0691077594430239
0.0535798114859391
0.0358526477606233
0.0172304492522933
-0.000878866436253264
-0.0172142882684373
-0.0308895812715606
-0.0415418057338812
-0.0493627076322019
-0.0550058586934158
-0.0593954630266359
-0.063487914907108
-0.0680468200257553
-0.0734841179453634
-0.079798432642586
-0.0866149856298236
-0.0933071329855544
-0.0991629494773595
-0.103553980533616
-0.106067901441274
-0.106580116966234
-0.105256553426095
-0.10249610324136
-0.0988331935105339
-0.0948270585802312
-0.0909635078598898
-0.0875877302966856
-0.0848757213138157
-0.0828412566310684
-0.0813680378321817
-0.0802538841195962
-0.0792553680148028
-0.0781256963153439
-0.0766436431416564
-0.0746348301744588
-0.0719878375903479
-0.068666863990106
-0.0647203851045716
-0.0602821523424947
-0.0555587909774532
-0.0507997829695319
-0.0462516445122137
-0.0421062216820555
-0.0384586861836217
-0.0352901641870677
-0.0324821100958102
-0.0298575286237698
-0.0272337650324208
-0.0244682318267792
-0.0214834319365915
-0.0182674894119491
-0.0148559027853648
-0.0113058589074799
-0.00767506929487092
-0.00401323452151619
-0.000367804722662267
0.00320039199388612
0.00659948123792668
0.00969494292031611
0.0123102319927266
0.0142423263314933
0.0152905663083958
0.0152931603957843
0.0141635843616817
0.0119191471325991
0.00869536719543382
0.00474185151567115
0.000398334727223826
