-0.0800792501052215
-0.152447623553942
-0.217068312410842
-0.267729344847763
-0.3008612342503
-0.315955940275068
-0.315278296784593
-0.303043258473771
-0.284330725893871
-0.264020303308435
-0.245970875320789
-0.232565521447024
-0.224628845788804
-0.221643116131654
-0.222154065204016
-0.224250786426526
-0.22601610048427
-0.225876748936416
-0.222827611071644
-0.216535886367307
-0.207339564479102
-0.19615481202363
-0.184311419179613
-0.173337062029387
-0.164706146266128
-0.159571893788306
-0.158519163241746
-0.161392442871669
-0.167248661664966
-0.174462956475224
-0.180991952167482
-0.184771829387383
-0.184190978663565
-0.178542249649179
-0.168348198741416
-0.155464686500056
-0.142891541993588
-0.134257317198002
-0.133011886340925
-0.141447786069692
-0.159748411338403
-0.185305897680339
-0.212555186829827
-0.233516351451256
-0.239102437605097
-0.221045508789524
-0.174077088492954
-0.0978425584339319
0.00201283053622062
0.1140374649653
0.222619846527531
0.310866104117676
0.364095691034955
0.373098196566456
0.336289384731026
0.260156645945769
0.157838380606914
0.0462095362053962
-0.0577352023859094
-0.140252320099763
-0.193170840494973
-0.214722211802212
-0.208875201116032
-0.18355323181471
-0.148333622085638
-0.112246935534699
-0.0821441136485408
-0.0618673496914581
-0.0522300979048033
-0.0516288952051267
-0.0570027755367858
-0.064843168633933
-0.0720257701040509
-0.0763397929039129
-0.0766864836229439
-0.0729942616844889
-0.0659494060920547
-0.0566570776883024
-0.0463243044868031
-0.0360166824455594
-0.0265093980558187
-0.0182321696976956
-0.0112879248221847
-0.0055131521688363
-0.000554967376452652
0.00404426310468925
0.00875962546067689
0.0140049885464864
0.020074317618491
0.0271061846754678
0.035072261470286
0.0437945934541835
0.0529921135239947
0.0623430582518892
0.0715443287355311
0.0803575642457088
0.0886392447911796
0.0963497094369821
0.103535885653937
0.110292825531743
0.116717065074026
0.122860235592135
0.128685828987522
0.134037165146459
0.13862998335503
0.142075159779306
0.143924361021618
0.143729395539611
0.141109949375471
0.135820554860121
0.127800667412592
0.117196459662243
0.104355944769976
0.0898034715705328
0.0741948381865187
0.0582551781166045
0.0427098981173586
0.0282198027075567
0.0153230173797724
0.00438386847772655
-0.00444303388273342
-0.0112219341509061
-0.0162154239649789
-0.0198387860937099
-0.0225914825708161
-0.0249685806638213
-0.0273665908257609
-0.0300074510446631
-0.0328982369960027
-0.0358323421663141
-0.0384338093767427
-0.0402432731316813
-0.0408301551948614
-0.0399010117413675
-0.037375465664289
-0.0334150781769586
-0.0284004296893616
-0.0228576503381182
-0.0173494190485079
-0.0123621655802497
-0.00822245127172575
-0.00505988151360848
-0.00281901588873959
-0.00131526348109145
-0.000319190159243512
0.000360207893443513
0.000822896446050286
0.00106695176103012
0.00101203630992646
0.000545137364284285
-0.000423598591604161
-0.00191221164028964
-0.00384324731365153
-0.00605018967117913
-0.00830565119983723
-0.0103622268352577
-0.0120006507307838
-0.0130748300238038
-0.0135370868880224
-0.0134343631331047
-0.0128812888462944
-0.0120218152454533
-0.0109884329388946
-0.00987008800966999
-0.0087039350970689
-0.00749702879783432
-0.00626507544122932
-0.00506712032228772
-0.00402310605303377
-0.00330963832099969
-0.00313045814322656
-0.00366331744980713
-0.00499792806325586
-0.00708546083584775
-0.0097114092676816
-0.0124949830702923
-0.0149201436727662
-0.016404216209068
-0.0163986220817084
-0.0145036075518345
-0.0105779497908017
-0.00482713439581639
0.00215298584222415
0.00940585654587617
0.0157338370395274
0.0198986580203583
0.0208722069082161
0.0180927668832732
0.0116667329915335
0.002448211882265
-0.00805248014720807
-0.0179374484049974
-0.0253285613577177
-0.0288413872578692
-0.0280253389869462
-0.0236508895705724
-0.0177355354219805
-0.0132475275658096
-0.0134924807005014
-0.0212572330225171
-0.0378589368452951
-0.0623176758296425
-0.0909046347820701
-0.117283509498735
-0.133359479575853
-0.130795410430037
-0.102967481917324
-0.0469480229320703
0.0350087246367587
0.134972349873066
0.240137937686221
0.334918377921213
0.403964617111485
0.435438048982107
0.423700949718828
0.370677230063205
0.28547216256166
0.182326333928038
0.0774547183063614
-0.0143726338231587
-0.0826214160681633
-0.122519714169083
-0.135108060756258
-0.126022858583959
-0.103506708863434
-0.0762370291413431
-0.0514976644965913
-0.0340346793318936
-0.0257025725229496
-0.0257983665541873
-0.0318530554095048
-0.0406078039721585
-0.048923331253706
-0.0544386416006426
-0.0558950465179819
-0.0531411355891874
-0.0468999735545292
-0.0384058389779171
-0.0290200587901457
-0.0199195847502263
-0.0119134736056212
-0.00539305061460582
-0.000386666512584009
0.00332229116262337
0.00605849782446023
0.00814250153891586
0.00983173119274567
0.0113144735244407
0.0127353709057413
0.0142295638692852
0.0159488068730555
0.0180654911924952
0.0207477109574337
0.0241161085146917
0.0282058101594193
0.0329500569733174
0.0381871382429366
0.0436865598779295
0.0491904233922699
0.0544593785752117
0.0593052317661443
0.0635987920409758
0.0672566566799417
0.0702166331092031
0.0724077572290661
0.0737216563460115
0.0739976620600349
0.0730304023514741
0.0705952706443547
0.0664809290724016
0.0605236624711029
0.0526414638804909
0.0428602062952103
0.0313233130097434
0.0182860462130413
0.00410170030128037
-0.0107991665759114
-0.0259404123190733
-0.0408395402573634
-0.0550430791696176
-0.0681515409654761
-0.0798364488216675
-0.0898512308317269
-0.0980333076778636
-0.104299095620287
-0.108640414902818
-0.111125790199779
-0.111899098429176
-0.111167983559506
-0.109183988839693
-0.106219421054818
-0.102541513642103
-0.0983863501843349
-0.0939432164044678
-0.0893584605399485
-0.0847540905596113
-0.080247758320231
-0.0759655721357421
-0.0720445811797588
-0.0686203962063667
-0.0657985044903878
-0.0636206450697178
-0.0620445787138467
-0.0609456611397342
-0.0601351857751549
-0.0593888185233939
-0.058481617557588
-0.0572219993087968
-0.0554729316117345
-0.0531568443910915
-0.0502527050415112
-0.0467929576798862
-0.0428588984322116
-0.0385720533650141
-0.0340850386437545
-0.0295735950142695
-0.0252235322969186
-0.0212082753825547
-0.0176646604987256
-0.0146785022708703
-0.0122822701587638
-0.0104607374461821
-0.00916389790387373
-0.00832704426235841
-0.00788967602796874
-0.00780189852494026
-0.00801741146650404
-0.00848196642937557
-0.0091232973080789
-0.00984337930262641
-0.0105179701441045
-0.0110119388683317
-0.0112095670120118
-0.0110468043441421
-0.0105335641135016
-0.00976311188880129
-0.00890690295102019
-0.00818988752522931
-0.00784727159595068
-0.00807519998197322
-0.00898837413551418
-0.0105879668997618
-0.0127400335416631
-0.0151704752327394
-0.0174828996530834
-0.01919754139527
-0.0198070805220236
-0.018851818925912
-0.0160157837562717
-0.0112300496109636
-0.00475621326592958
0.00277589396698639
0.0103956438062681
0.0168999723100546
0.0210465675231681
0.0218069848966522
0.0186250476792296
0.0116159244014444
0.00164925206307796
-0.00972615507404236
-0.0205342635018174
-0.0287758580621921
-0.0329111696316026
-0.0323164409753093
-0.0276017189424592
-0.0206832788155059
-0.0145294140407832
-0.0125587507234829
-0.0177607815664672
-0.0316992517520889
-0.0536257339564944
-0.079962985610395
-0.10439760062647
-0.118722589179417
-0.114393339390777
-0.0845496230154068
-0.0260730044067716
0.0588553354108306
0.162209824269225
0.270917971491424
0.368997501296923
0.440643754164949
0.473566144289432
0.461739356038984
0.406831588296693
0.317894970036247
0.209377216092243
0.0979867055504692
-0.000755417880061046
-0.0754105210868271
-0.120321366726528
-0.135850338800395
-0.127301835174009
-0.102986329796302
-0.0720159197806404
-0.04236914102272
-0.0195909344815642
-0.00627820112684445
-0.00229556633430611
-0.00551052148883228
-0.0127663578746824
-0.0208292488511265
-0.0271181704018318
-0.0301144827889656
-0.0294363078249732
-0.0256422484087176
-0.0198779188290288
-0.0134825776000248
-0.00764670310547698
-0.00317953082226126
-0.000413448912735214
0.000765195725923462
0.000800570517571782
0.000316105497158252
-3.56728018672123e-05
0.000303104785693579
0.00171733134647111
0.00439245983567323
0.00832864472874374
0.0133776147643996
0.0192911856454005
0.0257742287002019
0.0325301556280953
0.0392876748105627
0.0458099592661908
0.051896591342102
0.0573845995999038
0.0621489611524087
0.0661052729888435
0.0692182531168748
0.0715103871585233
0.073057368364526
0.073964340468729
0.0743300638542402
0.0742089997496091
0.0735777533207052
0.0723148472622028
0.0702065234823678
0.0669828427266462
0.0623731591366943
0.0561656485712855
0.0482621989307921
0.0387221314505934
0.0277838059744825
0.015855813735723
0.00348083328286262
-0.00871956823306514
-0.0201155536335722
-0.0301510205838646
-0.0384220788619364
-0.0447313074157355
-0.049105956978409
-0.0517792052237202
-0.0531359729628295
-0.053628435277718
-0.053679680381955
-0.053603783470544
-0.0535625992614548
-0.0535630995649878
-0.0534905427719316
-0.0531691651407592
-0.0524326741598644
-0.0511789348244652
-0.049391660799334
-0.0471306536844282
-0.04450191919159
-0.0416180219281634
-0.03856105433682
-0.0353654476725554
-0.0320308159003379
-0.028556497311223
-0.0249788390558078
-0.021397210585899
-0.0179814027474676
-0.0149538715226858
-0.0125462738875737
-0.0109450884352175
-0.0102493176120532
-0.0104533501166052
-0.0114536218179359
-0.0130738394750643
-0.0151037375850462
-0.0173402928162769
-0.0196165510835976
-0.021812915253923
-0.0238585568159948
-0.0257298643617612
-0.027443864451592
-0.0290444061002562
-0.030586327445526
-0.032122995710934
-0.0336958684654313
-0.0353248727193862
-0.0370049654237841
-0.0387124831737526
-0.0404144142210799
-0.0420714146936262
-0.0436356064112001
-0.0450507515782578
-0.0462571019697454
-0.0471985035575975
-0.0478330128399871
-0.0481489988174653
-0.0481794952664614
-0.0480021625634721
-0.047721751826838
-0.0474443500679457
-0.0472531105546587
-0.0471902101320625
-0.0472514407924794
-0.0474011265410668
-0.0476039684732705
-0.0478561813656635
-0.0481990053605408
-0.0487102501806035
-0.0494763549296575
-0.0505471467061707
-0.0518813826202116
-0.0533023348669346
-0.0544831933078579
-0.0549700301976067
-0.054241475757814
-0.0518038397727316
-0.0473141957377956
-0.0407075020189004
-0.0322933842849712
-0.0227935366983841
-0.0133004630208737
-0.00514453823381575
0.000328891371156104
0.00203976455297808
-0.00055127217790607
-0.00724219602418572
-0.01702221339742
-0.0281773836293364
-0.0385794899834678
-0.0461222330846199
-0.0492214308856391
-0.0472705695340753
-0.0409418258183894
-0.0322340629165092
-0.0241972736038683
-0.0203220472507715
-0.023666791782895
-0.0358771816471197
-0.0563124146826424
-0.0815252169860693
-0.105328979799614
-0.119596449838458
-0.115767022078552
-0.0868348007372911
-0.0294048958281271
0.0547080573894731
0.157857072491075
0.267262374057458
0.367057367826935
0.441320386467902
0.477412288518553
0.468790366039175
0.416545978416906
0.32922149834175
0.220931697311238
0.108294147577881
0.00698890494713919
-0.0711831114466458
-0.120081723372798
-0.139561373228711
-0.134480531869881
-0.112828920745594
-0.0835550700092086
-0.054632455705278
-0.0317362902176708
-0.0176897714358439
-0.0126320103507959
-0.0147029841738096
-0.0209694153221879
-0.0283331357397204
-0.0342355711756593
-0.0370599013667343
-0.03621970683258
-0.0319988838769571
-0.025251040867918
-0.017065681201116
-0.00848038626993752
-0.000287554517175854
0.0070450851920915
0.0133539627062281
0.0186985005539498
0.0232611187730006
0.0272563251574244
0.030866091780739
0.0342133113546752
0.0373728663850141
0.0404032382117847
0.0433772809602722
0.0464004923601133
0.0496127078916322
0.0531694878774728
0.0572049740526678
0.0617911958599815
0.0669134877332626
0.0724704996670782
0.0782950232250194
0.0841896004317333
0.0899690614682072
0.0954932400360894
0.100670162343958
0.105424498397442
0.109645374035441
0.113134014828
0.115568741030583
0.116504511807012
0.115421211091152
0.11181765881847
0.105325883879642
0.0958126255518439
0.0834433659445082
0.0686933509610154
0.0522975106243408
0.0351471882699549
0.0181620316636181
0.00217121447802246
-0.0121745638858818
-0.0244525611986774
-0.0344762783653984
-0.0422662708749125
-0.0479993433286072
-0.0519561614093985
-0.0544765498215802
-0.0559208583885221
-0.0566370322689903
-0.0569365274524725
-0.0570769520779099
-0.0572448276021992
-0.0575396114658454
-0.0579696708375676
-0.0584666076806165
-0.0589127547923352
-0.0591743578336886
-0.0591376354596804
-0.0587427558334657
-0.0580044727287227
-0.057012000311262
-0.0559122986998108
-0.0548840211921207
-0.0541033712825425
-0.0537040291371926
-0.0537432663026886
-0.0541883094054932
-0.05492501038699
-0.0557808665806573
-0.0565563141329138
-0.0570609335582515
-0.0571465471012466
-0.0567277590808787
-0.0557897219730782
-0.0543899970743225
-0.052655293918741
-0.0507662565761739
-0.0489285766381069
-0.0473384202173784
-0.0461495727025966
-0.0454439890465389
-0.0452102867402862
-0.0453411167418269
-0.0456552512923967
-0.045937052381282
-0.0459814487580214
-0.0456373818402122
-0.0448426435636684
-0.0436375618879052
-0.0421489914787275
-0.0405510380577099
-0.0390177059074185
-0.0376782583528478
-0.0365818703031287
-0.0356813490852932
-0.0348445939474176
-0.0338906837187373
-0.0326383842041182
-0.0309578521617274
-0.0288195463208735
-0.0263274761201264
-0.0237190124006106
-0.0213244276431715
-0.0194965914512086
-0.0185279858304979
-0.0185714620862233
-0.0195846540240258
-0.0213198432944337
-0.0233677080423826
-0.0252413811027561
-0.0264764189565405
-0.0267251072846021
-0.025826157216277
-0.023831708623888
-0.0209847624761613
-0.0176596709217199
-0.0142872621016791
-0.0112791162349338
-0.00895864569589165
-0.0075087620566017
-0.00694530472929692
-0.00711550262541731
-0.00771509013895274
-0.00832529152663616
-0.00847789186067064
-0.0077492034645884
-0.0058705533659189
-0.00283701940488395
0.00100789745497743
0.00494422542708697
0.00794015962883532
0.00882444406998774
0.00654368769831063
0.000451013017152736
-0.00944254284610981
-0.0223273990828027
-0.0366293936414125
-0.05024589169604
-0.0609566148062375
-0.0669338503684822
-0.0672482749504216
-0.0622508747620555
-0.0537101267097544
-0.0446143122673172
-0.0386161356240883
-0.039179500363523
-0.0485656179958473
-0.066863615350898
-0.0913198841974662
-0.116219569472621
-0.133496529031212
-0.134101193147345
-0.109967033677347
-0.0562171328623031
0.0269101311105974
0.132989886549875
0.249649508001213
0.360287124449127
0.447056841898068
0.494527431131591
0.493151133485167
0.441624952157989
0.347452257296721
0.225481452293227
0.0947655822098148
-0.0254399924578154
-0.119503722291131
-0.178131191194398
-0.199408766349281
-0.188128926819491
-0.153797534630565
-0.107982642574054
-0.0617058981311234
-0.0234426102816096
0.00195000469928061
0.0133373986959349
0.0126368030443673
0.00368861176990999
-0.00899103694669605
-0.0212898727790139
-0.0302241342457662
-0.0342446528240955
-0.0331720422978562
-0.0278738603637596
-0.0198142525615789
-0.0105979640112666
-0.00160601960365756
0.00622254292084905
0.0124586738473689
0.0171306856202249
0.0205918368363187
0.0233524484597793
0.0259232813475587
0.0287072699553756
0.0319527676341119
0.0357603918902137
0.0401281030874401
0.0450153000214361
0.0503993692183286
0.0562994128239699
0.0627603412057117
0.0698112425399704
0.0774176924145479
0.0854436905436124
0.0936377840412943
0.101654798420283
0.109109456126464
0.115640760989283
0.120964284862828
0.124900825422095
0.127377600061346
0.128400501532564
0.128004607489653
0.12620277684879
0.12295280382498
0.118151105253693
0.111652064210468
0.103312442926783
0.093056149982699
0.0809413414843883
0.0672050132882466
0.0522696977617642
0.0367105973012625
0.021188004346078
0.00635584236578175
-0.00723168291711524
-0.0191891323321319
-0.0293309685124819
-0.0376676937634028
-0.0443741828104175
-0.0497353322745013
-0.0540795509376287
-0.0577182096920356
-0.0609046255848934
-0.0638135547915974
-0.0665372842144354
-0.0690968591626567
-0.0714636932176866
-0.0735794611571065
-0.075365616620331
-0.076727302686058
-0.0775616580377296
-0.0777722538604594
-0.0772848397357126
-0.0760624756372517
-0.0741192115659129
-0.0715251868000477
-0.0683950947901818
-0.0648632270936113
-0.0610575145921472
-0.0570805635244213
-0.0529983775542347
-0.0488395873167607
-0.0446110218028272
-0.0403272743054965
-0.036041121573453
-0.0318629304536739
-0.0279652650155108
-0.0245697898760725
-0.0219114917831412
-0.0201840526331632
-0.0194848826735702
-0.0197805883414151
-0.0209024463130195
-0.0225726693020602
-0.0244594448189755
-0.0262501653915631
-0.0277188353931178
-0.0287630501278198
-0.0294026675644668
-0.0297480022927823
-0.0299483432304802
-0.0301323655733267
-0.0303586540479447
-0.0305954657568934
-0.0307351919810596
-0.030633763644341
-0.0301623908629747
-0.0292609455040026
-0.0279775869774212
-0.0264765332776358
-0.0250082724650754
-0.0238550482504761
-0.0232705580414304
-0.0234275510630228
-0.0243845987437847
-0.0260829986262615
-0.0283746640994883
-0.0310661831302084
-0.0339606468228054
-0.0368886089490167
-0.0397257153725828
-0.0423922251498223
-0.0448327322017357
-0.0469870884339294
-0.0487699878543625
-0.0500681526449574
-0.0507534949311231
-0.0507088659645929
-0.049861936393044
-0.0482155146390262
-0.0458602466833329
-0.0429668370308364
-0.0397668402550662
-0.0365292341642396
-0.0335325138624729
-0.0310339261498395
-0.0292438084440413
-0.0283099754099475
-0.0283088632951186
-0.0292408361623569
-0.0310333133212489
-0.0335519859066431
-0.036609562339408
-0.0399609927455042
-0.0432867864687809
-0.0461759389296252
-0.0481208566943245
-0.0485387776922709
-0.0468383264203887
-0.042540277255135
-0.0354342974023278
-0.0257283897177763
-0.0141415223988484
-0.00189690881138721
0.00941352423199212
0.0180953010551627
0.0227048830374487
0.0224065459013908
0.0172371961147404
0.00820015623035253
-0.00286067048995147
-0.013611642729714
-0.0217520302670721
-0.0255988232353033
-0.0245958130967311
-0.0196138197617908
-0.0129348872657701
-0.00786028435779855
-0.007959372581006
-0.0160730574268279
-0.0332700112859839
-0.0580040976727932
-0.0857322960735054
-0.109211242404643
-0.119574743355762
-0.108106995671509
-0.0684125110283723
0.00149356322489085
0.0977383802106623
0.210301330364168
0.324175017652934
0.421906052594845
0.487036472607777
0.507654023221242
0.479149915511089
0.40542519128295
0.298168567361939
0.174357554173327
0.0526390183397656
-0.0504591074838112
-0.123543573323746
-0.161942839900139
-0.167650584409448
-0.147860929289086
-0.11265402879011
-0.0725052023914876
-0.0362020394461539
-0.0095392724975404
0.00509018400434637
0.00831565347144179
0.00288554404212673
-0.00743649766244146
-0.0188921075518922
-0.0284758203785978
-0.0343254806300564
-0.0357670786621445
-0.0331019259058268
-0.0272620183653657
-0.0194496050647907
-0.0108390651275912
-0.00238148357749526
0.00527851715039958
0.0117938748636489
0.0170551164408703
0.0211185804961527
0.024144545748865
0.0263537005087972
0.028005033397355
0.0293891069256267
0.0308191399123864
0.0326041734989171
0.0350052700605185
0.0381889084909229
0.0421919816329776
0.0469100211395121
0.0521196999898649
0.0575378209114888
0.0628993723909678
0.0680246330494782
0.0728524792671225
0.0774326290525818
0.0818789886896978
0.0862938314404178
0.0906854425845288
0.0949093586479085
0.0986526364145617
0.101461198335209
0.102800599645292
0.102139750482794
0.0990423592113402
0.0932442997244643
0.0846999064565197
0.0735941681601984
0.0603254142093857
0.0454624245507764
0.029683335099857
0.013711370693484
-0.0017402002079762
-0.0160153638853453
-0.0285629353300708
-0.0389834755913818
-0.0470651529001132
-0.0527998450308729
-0.0563750626819034
-0.0581366442610321
-0.0585214030290577
-0.0579740832025763
-0.0568739790650365
-0.0554892553444543
-0.0539618849277842
-0.052320289332988
-0.0505165870905887
-0.0484784048092251
-0.046156967608305
-0.0435576855588914
-0.040751925887262
-0.0378725971418497
-0.0350924405237207
-0.032587626557844
-0.030499993574136
-0.0289124319102332
-0.0278406818833634
-0.027237321170021
-0.0270063394808422
-0.0270269086656421
-0.0271776678993988
-0.0273514057542658
-0.0274605858690635
-0.0274418797533205
-0.027262067580057
-0.0269203411083165
-0.0264457678212252
-0.0258947467833071
-0.0253495769585779
-0.0249132080830727
-0.0246989959480622
-0.0248209155688206
-0.0253861325143141
-0.0264843473446952
-0.0281717982198985
-0.0304578560680791
-0.0333020676410206
-0.0366198481590709
-0.0402916652720912
-0.0441756440436616
-0.0481235211527217
-0.0519930642823124
-0.055650623049139
-0.0589680273740203
-0.0618228189584776
-0.0641032549437895
-0.0657136194368946
-0.0665797368061814
-0.0666577491274227
-0.065942898776093
-0.0644708504589287
-0.0623117866277926
-0.0595655668245529
-0.0563616478894424
-0.0528587977240665
-0.0492408777717086
-0.0457105298379253
-0.0424797762231033
-0.039751002089581
-0.0376874071285189
-0.0363838030955463
-0.0358499994339579
-0.0360105022676787
-0.0367206038656441
-0.0378007030276807
-0.0390842394111232
-0.0404608154156669
-0.041893224780768
-0.0434009984265781
-0.0450179981308098
-0.0467373169301789
-0.0484611032937488
-0.0499790255382015
-0.0509938317560601
-0.0511907127777997
-0.0503266065637401
-0.0483119695531787
-0.0452633070652177
-0.0415080069695773
-0.0375300733793747
-0.0338648346092129
-0.0309706762127478
-0.0291094102300587
-0.0282592463283684
-0.0280814657557031
-0.0279611454053423
-0.0271284819869529
-0.0248423245064988
-0.0205987524594407
-0.0143196560851426
-0.00647045769115699
0.00194363663570367
0.00953008588842762
0.0147917840084736
0.0164795099144883
0.013933118230487
0.00732764150637633
-0.00225015893334294
-0.0129392928058496
-0.0224495214475333
-0.0285558792978378
-0.0296511840514571
-0.0252448241445632
-0.0162831751967706
-0.00517515677825308
0.00454850397629773
0.00894009347228883
0.00461969732353095
-0.0101266027163293
-0.0343787632622536
-0.0640317799793233
-0.0919190750817536
-0.108754092882884
-0.104855548878636
-0.0724073976451311
-0.00779307612665437
0.0865968235206134
0.201673403291114
0.322465720580263
0.430483530133595
0.507246401742521
0.538220354947849
0.51618622820893
0.443116039578943
0.329984283783095
0.194500327225165
0.0573347871964393
-0.0621693098521586
-0.149701036759807
-0.198235403749214
-0.208447740269718
-0.187432003696111
-0.146270457931504
-0.0971870000174344
-0.0509859974459851
-0.0152848949798841
0.00623445742442509
0.0136134507777815
0.00970267192729954
-0.0011049190772816
-0.0141500969035212
-0.0255222407025784
-0.0326609298482167
-0.0345231939243733
-0.0313963026033001
-0.0244862386779797
-0.01542273317934
-0.00580741546448105
0.00310710497033275
0.0105756764649177
0.0163735606634271
0.0207033598601167
0.0240403043203469
0.0269622197606038
0.0300058324468026
0.0335725468704556
0.0378855880132651
0.0429917498109459
0.0487998433807038
0.055140689050372
0.0618251431549208
0.0686824660546422
0.0755778135555422
0.0824162744510402
0.0891381130341433
0.0957089546009075
0.102112339809123
0.10834847612578
0.11443149271356
0.120374064592051
0.126158451760814
0.131702082868653
0.136824689800429
0.141223047558456
0.144465658611604
0.14602138860469
0.145323789932031
0.141858305559647
0.13525606236917
0.125379162593092
0.112377995477939
0.0966993055498101
0.0790371006885481
0.0602389383354437
0.0411900586339771
0.022697169463016
0.00539413923654759
-0.0103086926612409
-0.0242229259643003
-0.036339872851858
-0.0467682563568322
-0.0556673499360636
-0.0631875935549056
-0.0694332601217608
-0.0744570899318724
-0.0782815398023474
-0.0809312389113968
-0.0824648108463436
-0.0829991188920367
-0.082716650713695
-0.081848144390786
-0.080635552618851
-0.0792916549203424
-0.077968913095436
-0.0767409846893407
-0.0755998814877099
-0.0744741137467675
-0.0732656544715269
-0.0718924616135935
-0.0703232785363591
-0.0685991216667064
-0.0668373026014006
-0.0652113546836247
-0.0639075234649898
-0.0630727542730881
-0.062773126469567
-0.0629728405073832
-0.0635369429324527
-0.0642603131307942
-0.0649190753415942
-0.0653268632224719
-0.0653736806740208
-0.065036682070087
-0.0643653163571206
-0.0634465456743663
-0.0623580022099821
-0.0611255664899749
-0.0597055255997725
-0.057999725619815
-0.055895970909247
-0.0533202956007426
-0.050288206003079
-0.0469381974350208
-0.0435297695792263
-0.0404017900269754
-0.0379067561951415
-0.0363431907520058
-0.0359018026130262
-0.0366357898086979
-0.0384633416256364
-0.0412002661767883
-0.0446060225904564
-0.0484242522552507
-0.0524108710763318
-0.0563513387621584
-0.0600666615528607
-0.0634077934475756
-0.0662462695414109
-0.0684717751115752
-0.0699976023978836
-0.0707665003844645
-0.0707534819130838
-0.0699680872720987
-0.0684547867813402
-0.0662855419951241
-0.0635446930306252
-0.0603145681768488
-0.0566668870377438
-0.0526569719728913
-0.0483197792384421
-0.0436741886436627
-0.0387395268551097
-0.0335583104088277
-0.0282169178234099
-0.0228611606657686
-0.0177027503614177
-0.0130062678349256
-0.0090502999123272
-0.00607229724870151
-0.00421649128742069
-0.0034999173242541
-0.0038052869931033
-0.0049074241300838
-0.00653140320275995
-0.00842236797545529
-0.0103970590478204
-0.0123577845471155
-0.0142682741831718
-0.0161014600192067
-0.0177752912079627
-0.0191018536418787
-0.0197778065234377
-0.0194292323103549
-0.0177018962316801
-0.0143765909168195
-0.00948661828722836
-0.00340757241134106
0.00311712918533063
0.00904172361514074
0.0131760148082816
0.0144136920844544
0.0119932551373761
0.00573749716530567
-0.00379533478139728
-0.0153070291151381
-0.0269270742259994
-0.0365403263699206
-0.0422321827751777
-0.0427780213001645
-0.0380706404877962
-0.0293638407623086
-0.019229037726275
-0.0111683642382854
-0.00889026188837353
-0.0153336126659388
-0.0316201174746765
-0.0561910782403276
-0.0844053935876412
-0.108825030233222
-0.120296126960411
-0.109753215096098
-0.0704518333379515
-0.000133451774562129
0.0974691845053143
0.212312550003202
0.329204032031041
0.430381009714006
0.499032322715041
0.522946905658817
0.497342283601833
0.42608062984305
0.320895130745641
0.198803137607242
0.0784003387909301
-0.0239669625448841
-0.0971787507972683
-0.136823514739127
-0.145023806534583
-0.128892681984729
-0.0982009705145872
-0.0629267461359742
-0.0312613002464249
-0.00841802766904883
0.0036749049249318
0.0059333635992947
0.00119110180652631
-0.00690370151068589
-0.0148907108070212
-0.0202084531180904
-0.0215378073792156
-0.0187980226969566
-0.0128763820012595
-0.00520688932904228
0.00267549770670981
0.0094990319268583
0.0144783007891548
0.0173840350426747
0.018478556891142
0.0183574432077498
0.0177546864481578
0.0173686672207594
0.0177440293865624
0.0192171608618182
0.0219177050259072
0.025811024526821
0.030757837574529
0.0365653288605484
0.0430184270735063
0.0498986037521279
0.0570015536932285
0.0641569087519712
0.0712485074284938
0.0782338400349142
0.0851558831667937
0.0921333178707845
0.0993204767509624
0.106844312633455
0.114734537278636
0.122860387690383
0.130886564932051
0.138265371848383
0.144278201353747
0.148122720160087
0.149027829474836
0.146376814430688
0.139819789499475
0.129351611460225
0.115331997546631
0.0984403201643884
0.0795771199675122
0.0597334023550031
0.0398515964810045
0.0207074222763047
0.0028415969250498
-0.0134467936274222
-0.0280570323514887
-0.0410161220104526
-0.0524012937458803
-0.0622751928252601
-0.0706525294622757
-0.0775047718507924
-0.0827901519813774
-0.0864886735327914
-0.0886293312340401
-0.0893035705026081
-0.0886591121985792
-0.0868734896098591
-0.0841201448390153
-0.0805460621762747
-0.0762704599973719
-0.071402287688488
-0.0660710392539228
-0.0604623515389917
-0.0548406058012796
-0.049538464946552
-0.0449090991577147
-0.0412574702621867
-0.038773444306658
-0.037484315884244
-0.0372405026629893
-0.0377433522297054
-0.0386092105195015
-0.0394478172509911
-0.0399326218419341
-0.0398524949887926
-0.0391405707930515
-0.0378744897365555
-0.0362472424958655
-0.0345201774796802
-0.0329737959002649
-0.0318638243022764
-0.031384738284624
-0.031646655253581
-0.0326713532326512
-0.0344030760020754
-0.0367237876812494
-0.039469521475203
-0.0424513240698821
-0.0454792075990743
-0.0483807215839464
-0.0510100791197214
-0.053251606571442
-0.0550200257989552
-0.0562556918580929
-0.0569171712794165
-0.0569799728470527
-0.0564453556908564
-0.055352502696147
-0.0537868266894512
-0.0518846397556776
-0.0498344102058392
-0.0478677349242284
-0.0462344998114579
-0.0451678939430404
-0.0448499687062962
-0.0453825869857117
-0.0467657034210816
-0.0488901538187429
-0.051552114239584
-0.0544851575052386
-0.0573977855531261
-0.0600092107434129
-0.0620822980236434
-0.0634490652404699
-0.0640205466018352
-0.063780136807374
-0.0627687032396376
-0.0610680317416875
-0.0587831786940859
-0.0560265255494025
-0.0529109406292265
-0.0495535769417891
-0.0460813466026361
-0.0426297369047011
-0.0393358743803946
-0.0363287728351645
-0.0337143406445159
-0.0315545984752582
-0.0298502752723556
-0.0285376360222435
-0.0275005785601454
-0.0265929567994332
-0.025669734162777
-0.0246258221687571
-0.0234323788267122
-0.022155705243667
-0.0209520921523072
-0.0200405086997231
-0.0196538667644201
-0.0199697562089011
-0.0210336350328617
-0.0226998604991196
-0.02461341181424
-0.0262436259103488
-0.0269738147967265
-0.0262423686721564
-0.0237109849745855
-0.0194137495727332
-0.0138375111489928
-0.00790051615700852
-0.00281746006350674
0.000138511230462839
-6.47632992454908e-05
-0.00393055475193693
-0.0112380309909865
-0.0209995039953968
-0.0315968240230162
-0.0410913701549988
-0.0476648396991347
-0.0501057383857212
-0.0482278655318122
-0.0431062115877758
-0.0370362519126053
-0.0331588909730361
-0.034755446600064
-0.0443078392434405
-0.0625121106743779
-0.0874928960685972
-0.114475864416368
-0.136128385653568
-0.143662482634642
-0.128606770611174
-0.0849365129406339
-0.0110758859025465
0.0887820135073807
0.204516825812983
0.321331947105912
0.422302859515932
0.491718153466916
0.51842145256195
0.498292684853541
0.435191462252996
0.340083537608744
0.228576279323861
0.117538116028176
0.0217048406736727
-0.0488944666196129
-0.0901714802053959
-0.103767567894943
-0.095671600758743
-0.0741856136139657
-0.047820528296127
-0.0235993513961577
-0.00604400411408614
0.003091078559482
0.00444906084475154
0.000289859235196762
-0.00643358820268508
-0.0129068280573818
-0.0170407731029282
-0.0177520276878477
-0.0149502701560682
-0.0093059019583575
-0.00190810409931273
0.00607699408222926
0.0136718576931781
0.0202411748703832
0.0255288169302379
0.0295992316145019
0.0327264374402082
0.0352781209380684
0.0376243366103884
0.0400785365473154
0.0428694333319212
0.0461390339529269
0.0499552048889791
0.054324128811526
0.0591978248251443
0.064483253765187
0.0700575772319293
0.0757856257252657
0.0815360209996046
0.0871983076807165
0.0927007439424987
0.09801994654222
0.103174627990955
0.108205769488114
0.113149593467368
0.118005470069547
0.122701633868007
0.127069171171818
0.130834951227263
0.133633499742733
0.135031375054632
0.134562578457298
0.131776871934932
0.126295897610721
0.117866022876334
0.106401468981638
0.0920165882199814
0.0750420919660021
0.0560159759763665
0.0356470302738058
0.0147584412685741
-0.00578197516451951
-0.0251430980641413
-0.0426160250828597
-0.0576860310390708
-0.070074066467129
-0.0797419343831338
-0.0868621228378941
-0.0917552001076876
-0.0948061702769357
-0.0963836153671324
-0.0967853028178715
-0.0962191412779147
-0.0948155721669875
-0.0926640626196239
-0.0898617223377216
-0.0865530947166358
-0.0829411870399375
-0.0792665611237172
-0.0757672638136628
-0.0726341113079447
-0.069972240730789
-0.067781386030304
-0.0659656525312281
-0.0643696587221109
-0.0628238093316966
-0.0611828780604899
-0.0593526031925083
-0.0573027379987134
-0.0550638049485772
-0.0527104458583776
-0.0503424658470816
-0.0480715206921039
-0.0460103819283193
-0.0442595511229626
-0.042893535217919
-0.0419509742694774
-0.0414264119533223
-0.0412611489167442
-0.0413394756127873
-0.0414993107259183
-0.0415567579683711
-0.0413366673946617
-0.0407046130357348
-0.0395981039658156
-0.038048118800345
-0.0361785095427637
-0.0341810410595139
-0.0322763154051389
-0.0306715852159104
-0.0295222731297804
-0.0289066908691383
-0.0288256667104536
-0.0292277906593335
-0.0300449708252134
-0.0312202646429726
-0.0327195492831012
-0.0345251867959508
-0.0366118729396414
-0.0389131141210591
-0.0412978540355836
-0.0435741148099449
-0.0455194873004918
-0.0469257009922685
-0.0476449082982291
-0.0476272529765011
-0.0469367330060256
-0.0457362278473462
-0.0442471601094539
-0.0426998280252638
-0.0412869924249582
-0.040127092431754
-0.0392451832658353
-0.0385799501479407
-0.0380137901510303
-0.0374108687470942
-0.0366500489270361
-0.0356491355352787
-0.0343788930484676
-0.0328625754540021
-0.0311614378796103
-0.0293548502028717
-0.0275217670137645
-0.0257220319129907
-0.023976943167625
-0.0222575874429282
-0.0204897807044459
-0.0185733351634396
-0.016406771970711
-0.0139126990895161
-0.0110614645818272
-0.00788587746111999
-0.004479632023394
-0.000981737939745442
0.00244473292501162
0.00563689798669173
0.00846114778399704
0.0108420942902822
0.0127797887779935
0.0143495699161796
0.0156881861413714
0.0169688793219876
0.0183638540090401
0.0199985566949503
0.0219122257526927
0.024037650764937
0.0262028170934033
0.0281529439128254
0.0295925499096639
0.0302407393289932
0.0298817408390419
0.0283938639234425
0.025754800143514
0.0220318074116684
0.0173643952673282
0.0119464120006029
0.00601856247172373
-0.000121383960602662
-0.00609978820683637
-0.0114613648081614
-0.0156942301131535
-0.018292673606621
-0.0188572003759914
-0.0172205736146418
-0.0135680688103023
-0.00850464574193478
-0.00302877785343953
0.00160280248637636
0.0041089251072559
0.00347951351795508
-0.000734057297956815
-0.00822021027143134
-0.0178747173149597
-0.0279687648308131
-0.0365044635314184
-0.0417015220480272
-0.042516645726566
-0.039064740667752
-0.0328100270525483
-0.026432295196954
-0.0233333916501705
-0.0268207538859599
-0.0390909549998228
-0.0602261700426529
-0.0874745327562436
-0.115079023683588
-0.134842759139552
-0.137478179365363
-0.114591914142013
-0.0609381575875245
0.0235969938921129
0.13286108316849
0.254609810916893
0.372174584882075
0.46742680078102
0.524445248530786
0.533008743714733
0.490990024565634
0.404967993333054
0.288845257661104
0.160815791967772
0.0394938756808651
-0.059774188996442
-0.127515574863416
-0.161142461657842
-0.164344905989419
-0.145252780904572
-0.113993156139106
-0.0803071622008704
-0.0517500898441686
-0.0327484923775476
-0.0245252019907084
-0.0257052778931064
-0.0333099050083559
-0.0438255089291715
-0.0540914710262628
-0.0618602802672267
-0.0660042459266305
-0.0664297250742568
-0.063802537192854
-0.0591991541427526
-0.0537830448134433
-0.048565465348463
-0.0442633723531018
-0.0412401949904874
-0.0395112502096922
-0.038796497025069
-0.0386010808369841
-0.038307510524536
-0.0372726988602146
-0.0349246569084288
-0.0308449646445819
-0.0248205012007514
-0.0168587784050679
-0.00717161779405162
0.00386815414982294
0.0157923787455488
0.0281124018062735
0.0403841928540686
0.0522532187729484
0.0634801861248421
0.0739492050968149
0.0836555575471569
0.0926745920108332
0.101121191989993
0.109107160880696
0.11669605300831
0.12385650694902
0.13042428034593
0.136084755071033
0.140380495003926
0.142745571248621
0.142570671396482
0.139296866192683
0.132520297744083
0.12208202008548
0.108124348414209
0.0911047812226723
0.0717625232099447
0.0510397601439336
0.0299743936522375
0.00958909364466664
-0.00920620991539467
-0.0256924720487065
-0.0393953387900576
-0.0501071751526324
-0.0578756795073085
-0.0629655821331772
-0.0657994474698332
-0.0668808539147434
-0.0667100597631267
-0.0657117162420361
-0.0641906456257933
-0.0623185567000245
-0.0601483806765687
-0.0576543449309098
-0.0547908776632306
-0.051551793003279
-0.0480090862564484
-0.0443220764460035
-0.0407179637250256
-0.0374475292368297
-0.0347251967271244
-0.0326737735770534
-0.0312958779766394
-0.0304794887710299
-0.030029980517726
-0.0297187602192264
-0.0293402429749048
-0.0287634954787105
-0.0279611852955583
-0.0270077399719287
-0.0260518638547826
-0.0252716289397695
-0.0248186549893979
-0.0247641118873348
-0.0250669370347814
-0.0255777340943251
-0.0260738544315232
-0.0263107026973812
-0.026075241339132
-0.0252282252472452
-0.0237209122423421
-0.0215815781233852
-0.0188850684196031
-0.0157260388624334
-0.0122071745228866
-0.00844291617823095
-0.00457682321680493
-0.000807214128342394
0.00259406813312414
0.0052877119679581
0.00690283578779739
0.00709255838023659
0.00559577609673968
0.00229362406144158
-0.00275416638296405
-0.00930836175041676
-0.0169868819532403
-0.0253238681324951
-0.0338322389497509
-0.0420581695914518
-0.0496197651972306
-0.0562227967021291
-0.0616549644348079
-0.0657727445043326
-0.0684950778167047
-0.0698057259183078
-0.0697583480818523
-0.0684811345031937
-0.0661788488422987
-0.0631250085667371
-0.0596378925847293
-0.0560450300065431
-0.05264713650184
-0.0496863048083436
-0.047317828226724
-0.0455904065392701
-0.0444442867644553
-0.0437296145625148
-0.0432375812206322
-0.0427378585737307
-0.0420204174331273
-0.0409357641899076
-0.0394214366390133
-0.0375077912224512
-0.0353072515848478
-0.0329928286638958
-0.0307660060300386
-0.0288157214650917
-0.0272784996055967
-0.0262102420697424
-0.0255720153774232
-0.0252298309814051
-0.024973782194446
-0.0245600406114844
-0.0237663695152569
-0.0224438064398558
-0.0205523237850856
-0.0181748244143747
-0.0155039630106275
-0.0128003615295773
-0.0103346186110489
-0.00833444242761727
-0.0069502088330676
-0.00623893394483098
-0.00616383023739017
-0.0066092361707455
-0.00740670745695658
-0.0083627172738877
-0.0092830611838395
-0.00999674464842075
-0.010378289141633
-0.0103573308870701
-0.00990598386495963
-0.00900787616916712
-0.00762149779342052
-0.00565013276219977
-0.0029321209408886
0.000731441021452465
0.00550362061416257
0.0114082425737656
0.0182289579027124
0.0254448657853274
0.0322311574324973
0.0375471710848625
0.0403169192788263
0.0396740381572036
0.0352128058504131
0.0271782257648366
0.0165372803164334
0.00488962266506807
-0.00579643632605562
-0.0135921226881087
-0.0170833589148592
-0.0158088526754525
-0.0105523661472349
-0.00338866015462151
0.00259075066476923
0.00388721576734721
-0.0025289527644975
-0.0182281650300746
-0.042433388069593
-0.07148715998012
-0.0989155508039803
-0.116241936274191
-0.114534060607023
-0.0864574832618526
-0.0284143324131978
0.0577771710933574
0.164204105170557
0.277549908459248
0.381193676001517
0.458359245362683
0.49561937414328
0.485892103607178
0.430130170105891
0.337211921574095
0.222027096592027
0.102259634127611
-0.0052790801785035
-0.0878357566499671
-0.138689747307006
-0.157578823206432
-0.149684186299381
-0.123637122932742
-0.0891735534793421
-0.055025544477606
-0.0274641568522566
-0.00967557290946439
-0.00192435193268179
-0.00228493490511083
-0.00764375159336338
-0.0146909113656598
-0.0206950881802541
-0.0239487245534546
-0.0238661871365739
-0.0208024204652394
-0.0157104989991381
-0.00976013135170014
-0.00401135908026713
0.000798093123727116
0.00433140124041357
0.00661705853137271
0.00794668546022576
0.00875367395089562
0.00950195897355112
0.01060007065157
0.0123491379087866
0.0149237502945328
0.0183735309057795
0.0226343233668702
0.027549009667878
0.0329017025790433
0.0384613013562128
0.0440255766409574
0.0494607495389888
0.0547321914597757
0.0599151520053659
0.065173952940186
0.0707107215936056
0.0766968899494147
0.0832015349804465
0.0901291837786203
0.0971843982285326
0.103880566246956
0.109595288736522
0.113656184613492
0.115435920634134
0.114440324700568
0.110375199610601
0.10317814682305
0.0930119011180148
0.0802298647030063
0.0653275171895207
0.0488866067602651
0.0315174212209881
0.0138090823206938
-0.00370473507321433
-0.0205679365749208
-0.0364188699457676
-0.0510010712008735
-0.0641623719168933
-0.0758421901666486
-0.0860507351101777
-0.0948400245172065
-0.102266490206103
-0.108354815808592
-0.113078802658308
-0.116366542316405
-0.118125098531588
-0.118277690144849
-0.116807496098156
-0.113796069274232
-0.109439265199469
-0.104032683514262
-0.0979342917788791
-0.0915169074784336
-0.0851187663795723
-0.0790004271602259
-0.0733199999963218
-0.0681333429360491
-0.0634133541237799
-0.0590785188717019
-0.0550269972342361
-0.0511735906497386
-0.0474794395660302
-0.0439631425520587
-0.0406926302673297
-0.0377651128964053
-0.0352794524443373
-0.0333032278701682
-0.0318436365385721
-0.0308351258791525
-0.0301473471443855
-0.0296063204157733
-0.029022730629157
-0.0282260548550739
-0.0270991217871889
-0.0256016258784293
-0.0237761241773259
-0.0217400278561694
-0.0196675153186563
-0.0177599763404524
-0.016207130704431
-0.0151505488487235
-0.014660858660322
-0.0147292766769743
-0.015269335557626
-0.0161293843857239
-0.0171171144451052
-0.0180302055330862
-0.0186850911000167
-0.0189428553176177
-0.0187337583805069
-0.0180741066031095
-0.0170654139303664
-0.0158751048401624
-0.0147076032044769
-0.0137725140438214
-0.0132517022107346
-0.0132706854717842
-0.0138838285427377
-0.0150758244724768
-0.0167718593348324
-0.0188496094812187
-0.0211528807728816
-0.0235058021644364
-0.0257218000105858
-0.027606477943293
-0.0289640659367313
-0.0296167612729535
-0.0294346658668284
-0.0283670716083086
-0.0264679361742524
-0.0239081566935529
-0.0209631605168078
-0.0179697563275559
-0.0152629573620673
-0.0131139792018865
-0.0116852778770714
-0.0110097021480245
-0.0109986938545266
-0.0114801396064838
-0.0122532214973521
-0.013138415957319
-0.0140077686823422
-0.0147936434998311
-0.0154786232189462
-0.0160699110343416
-0.016569139986691
-0.0169552516070105
-0.0171900689688708
-0.0172400471509429
-0.0171018955373899
-0.0168248345371019
-0.0165235853786401
-0.0163726146140092
-0.0165765862564721
-0.0173244057680082
-0.0187393073526067
-0.0208319478485601
-0.0234620236386658
-0.0263213953743599
-0.0289536955636811
-0.0308144897878906
-0.0313649518425261
-0.0301894044326248
-0.0271221364595703
-0.0223539783932602
-0.0164784966005731
-0.0104468262831144
-0.00542260384677586
-0.0025506744350264
-0.00267684238227154
-0.00608440441371665
-0.0123303260735576
-0.0202491968707463
-0.0281511219672216
-0.0341924307326609
-0.0368551175519783
-0.0354305077034178
-0.03037607294798
-0.023422648683365
-0.0173546628799863
-0.0154498547350516
-0.0206365496885802
-0.0345084008405995
-0.0564166971137773
-0.0829037417957277
-0.107718496789124
-0.122564882890017
-0.118582501043796
-0.0883613697476351
-0.0280857594744923
0.0607371643977802
0.170507741107562
0.288102452616928
0.396857970021236
0.479669120252972
0.522539375290858
0.517706537781261
0.465499716397935
0.37438644462095
0.259157271094152
0.13771739085037
0.0273405283739997
-0.058645661455637
-0.112967749288794
-0.134943793804854
-0.129541511752214
-0.105401687036393
-0.0724472099456748
-0.0396890124005131
-0.013677647507968
0.00219705444197852
0.00759577464284587
0.00451506203007902
-0.00374350857967215
-0.0136257894429406
-0.022163700273336
-0.0274697927829834
-0.0288686310977961
-0.0267269475003053
-0.0220896780121367
-0.0162481466390601
-0.0103588029111761
-0.00519233020387378
-0.00103996020896342
0.0022381743730046
0.00506284389558601
0.00794096278980527
0.0112900072826796
0.0153292088590247
0.0200522625916815
0.0252696475966617
0.0306976319907246
0.0360647274144806
0.0412006479051293
0.046079659107177
0.0508122942955152
0.0555991215721664
0.0606650962237588
0.0661919694672643
0.0722680739502171
0.0788707058841774
0.0858794420024464
0.0931033370460338
0.100306672722662
0.107229043641196
0.113599445628898
0.119142117143396
0.123575576540123
0.126612411373857
0.12796451979667
0.127350966069298
0.124507283732731
0.119203203644164
0.111274362661987
0.100661773847272
0.0874470378130997
0.0718766405834252
0.054372336106239
0.0355211129975292
0.0160390392219051
-0.00328678153464758
-0.0216674451758989
-0.0383860848320743
-0.0528724523590915
-0.0647670271547313
-0.0739575103245796
-0.0805775995712229
-0.0849693033031236
-0.0876137978494854
-0.0890381275535602
-0.0897155411879214
-0.0899865169286675
-0.0900206944489106
-0.0898228908426449
-0.0892761879753777
-0.0882121352068764
-0.086490849724481
-0.0840653584611403
-0.0810097850449532
-0.0775086970132901
-0.0738173548781467
-0.0702041447533082
-0.0668888711911239
-0.0639965320800555
-0.0615424241285426
-0.0594480294470164
-0.0575751366214832
-0.0557679511522761
-0.053897244935661
-0.0518965197994025
-0.0497778606101327
-0.047624650520233
-0.0455691883387996
-0.043762771042202
-0.042341338781937
-0.0413934511666309
-0.0409423358894846
-0.0409471909068511
-0.041317425475411
-0.0419325992893651
-0.0426671824814258
-0.0434175891603448
-0.0441208755277715
-0.0447560603316138
-0.0453311136368608
-0.0458650618464618
-0.0463705960018258
-0.046840635271228
-0.0472462259327903
-0.0475503038554808
-0.0477290263989882
-0.047785712550313
-0.0477508958410019
-0.0476723263993131
-0.0475990390074689
-0.0475619980922515
-0.0475592837769149
-0.0475567438824934
-0.0475051677834464
-0.0473625553274988
-0.0471099595266856
-0.0467570055592738
-0.0463354651247568
-0.0458792893424962
-0.0453978243719953
-0.0448588957432079
-0.0441941651000125
-0.0433235899677161
-0.0421872244703034
-0.040775088942608
-0.0391469213663311
-0.0374309967061641
-0.0357970715313536
-0.0344135883956485
-0.0334067482305125
-0.0328318861494061
-0.032659501079854
-0.032778544045524
-0.0330183353136739
-0.0331810605396487
-0.0330714664958596
-0.0325188158864809
-0.0313963256400739
-0.0296412138359754
-0.0272713164999194
-0.0243951288011225
-0.0212158999531085
-0.0180255406031341
-0.0151772469950758
-0.0130314883116804
-0.0118841172459758
-0.0118915630274546
-0.013005908498557
-0.0149349800852188
-0.0171482731631028
-0.0189435958653738
-0.0195705348771562
-0.0183911562685644
-0.015051605899648
-0.00962979630299836
-0.00271331622963582
0.00463433488301082
0.0110336894910465
0.0150547952780431
0.0155407751451107
0.0119216958009447
0.00443600534285482
-0.00581756677796522
-0.0170377809341978
-0.0270753369400322
-0.0339246414263312
-0.0362581961409542
-0.0338808737043221
-0.0279724916821173
-0.0210144949252318
-0.0163561914958128
-0.0174491175230084
-0.0268572365972705
-0.0452348526795308
-0.0705316190512021
-0.0976960772271023
-0.119084731675634
-0.125651418228156
-0.10880955181797
-0.0626508562638761
0.0139801020616065
0.116137575908622
0.23265382836012
0.347502351388322
0.442540253928113
0.501126619229336
0.511789523010322
0.470991479766239
0.384204576553969
0.26493271921735
0.131884436177635
0.00502409250756994
-0.0984652015643496
-0.167296660822883
-0.197597359563575
-0.192654202894333
-0.161189731603767
-0.114780703542406
-0.0651336900877263
-0.0218401299413862
0.00899662468477679
0.0251512121561095
0.0278131711683841
0.0205495629474547
0.00802721333370166
-0.00519221925546913
-0.0155531461215352
-0.0209897521301618
-0.0209926060303238
-0.0163380482472147
-0.00860674335378154
0.000361806968666528
0.00894372285906434
0.0160449286830476
0.0212246317585983
0.0246440835075619
0.0268867854283234
0.0287172940645885
0.0308518607532645
0.033795774214592
0.0377696654981783
0.0427213424780257
0.0484052736293778
0.054498819901337
0.060714815170982
0.0668772981368086
0.072948863786348
0.079015139494281
0.085236711801512
0.0917826010622393
0.0987663880776768
0.106204224132585
0.113999079484966
0.121943279979109
0.129732533001538
0.13698897136156
0.143287839269801
0.148180672051907
0.151216337228661
0.151969831989877
0.150083889443573
0.14531704847014
0.137588461226569
0.127012019699536
0.113909556638407
0.0987896460556438
0.082288134894754
0.0650847432476079
0.0478188734329539
0.0310230530417629
0.0150860730881138
0.000253106274346342
-0.0133418540937393
-0.0256321852212654
-0.0365876246428685
-0.0462056811930672
-0.0545197476300539
-0.0616141507139411
-0.0676359533803502
-0.072790160431341
-0.0773086371257707
-0.0813989251577004
-0.0851927831372098
-0.0887122431782595
-0.0918615672505593
-0.0944497379001597
-0.0962448422680931
-0.0970488552245826
-0.0967675975936508
-0.095452036011664
-0.0933005871275116
-0.0906224511041582
-0.087767981228636
-0.0850431813164476
-0.0826369772744689
-0.0805861190756522
-0.0787840746307794
-0.0770254268336633
-0.0750734282287302
-0.0727346964022174
-0.0699181622854419
-0.0666582519860115
-0.0630992430256483
-0.0594530134796193
-0.0559446449873038
-0.0527586375534683
-0.0500013990286361
-0.0476938893002294
-0.0457939409592975
-0.0442333069841088
-0.0429541852081615
-0.0419370056891441
-0.0412123242668945
-0.0408494677657615
-0.040924581930783
-0.0414838219149296
-0.0425171675126278
-0.0439470376222567
-0.0456300933173115
-0.0473727593440295
-0.0489588200428966
-0.0501802727830967
-0.050863392811588
-0.0508912150093267
-0.0502257008072484
-0.0489235338015326
-0.0471345836558928
-0.0450803277752895
-0.0430187142808193
-0.0412021615469111
-0.0398349512855253
-0.039041798873099
-0.0388599226122163
-0.0392541986112695
-0.0401420711682839
-0.0414165578023079
-0.0429645118767218
-0.0446785058065807
-0.0464579277461837
-0.0482002141466137
-0.0497918611411193
-0.0511072062788367
-0.0520140089283486
-0.0523832691848207
-0.0521058453443774
-0.0511160398531399
-0.0494121132677243
-0.0470611615085913
-0.0441849674014009
-0.0409308278518043
-0.0374314536113312
-0.0337617016658785
-0.0299101689370228
-0.0257857408657563
-0.0212651993012991
-0.0162714717138441
-0.0108650613788087
-0.00532614547045665
-0.000194591114213487
0.00376737685358648
0.0057056028862221
0.00488052899489405
0.000905983749793531
-0.00604020910880875
-0.0151036317473312
-0.0248006980382611
-0.0332511928586802
-0.0385666356980778
-0.039319927239501
-0.0349960926919174
-0.0263113448152387
-0.0152909186982385
-0.00502940616103486
0.000879610400121115
-0.000815783734016673
-0.012046296154576
-0.0325018414633619
-0.0590203408918021
-0.085530475471692
-0.103715004335993
-0.104415634634017
-0.0796146297765179
-0.0246318724054486
0.0599822506344374
0.167424669934233
0.284933514200205
0.395560279290275
0.481203764956917
0.526309660119839
0.521367266472048
0.46527930460983
0.36590700304418
0.238563819379457
0.1028037717059
-0.0216666469838107
-0.118894337044076
-0.179446061459195
-0.2014667114313
-0.189979333178106
-0.154833884037859
-0.107977648017562
-0.0607667396079069
-0.0219029129664978
0.00367300085600168
0.0148880953840869
0.0138383759982254
0.00460828317308535
-0.00804024577250682
-0.0198081238160806
-0.0276301549064846
-0.0300067248709503
-0.0269407994349557
-0.0195928100835212
-0.00978781607441141
0.000495623370405823
0.00954966749217172
0.0162131700324051
0.0199867864726678
0.0210061381486655
0.0199050580649502
0.0176112321633397
0.0151263983030397
0.0133390261743063
0.0128974707953245
0.0141524786143525
0.0171676230827455
0.0217849998090273
0.0277182914903266
0.0346404663241116
0.0422460651983404
0.0502838784314903
0.0585618861560064
0.0669295731256138
0.0752511229476577
0.0833868644476173
0.0911899830802289
0.098511964046274
0.105208849548546
0.11114619157807
0.116200113331658
0.120248687291811
0.123154011458478
0.124746049766226
0.124818994201159
0.123140842390738
0.119472738547081
0.113598721858238
0.10536570954807
0.094725394439292
0.0817672930346912
0.0667387974595419
0.0500508499768718
0.032262642278367
0.0140392391443682
-0.00391171353049535
-0.0209086380945035
-0.0363585980802963
-0.0498090113268978
-0.0609816350214552
-0.069779985553814
-0.0762703014905552
-0.0806468868194681
-0.0831919445621337
-0.0842341833350204
-0.0841123784202914
-0.0831539309051801
-0.0816707926944848
-0.0799617599886907
-0.0783085146637141
-0.0769625564907799
-0.0761255962648063
-0.0759245595069403
-0.0763861426854082
-0.0774245866512467
-0.0788546353302253
-0.0804271700214372
-0.0818749118832741
-0.0829583198987226
-0.083505252886366
-0.0834345003193803
-0.0827541604188287
-0.0815382152270577
-0.0798952444686563
-0.0779401256851455
-0.0757721763062066
-0.0734635819807675
-0.0710630497977109
-0.0686109498763922
-0.0661528505264331
-0.0637426706694939
-0.0614382703498041
-0.0592946604657374
-0.0573546208976775
-0.0556372584912802
-0.0541308879057395
-0.0527943800968799
-0.0515622541962618
-0.0503484373538278
-0.0490525130088123
-0.0475742116560844
-0.0458326198887248
-0.0437813275665986
-0.0414168390566206
-0.0387826939173447
-0.0359680936046638
-0.0330980113512153
-0.0303187001726844
-0.0277864265789894
-0.0256592292370092
-0.0240835854879463
-0.0231729108413045
-0.0229843146348879
-0.0235002954323936
-0.0246180623878756
-0.0261521601283924
-0.0278596385165921
-0.0294880043384318
-0.0308308214779965
-0.031771570910651
-0.0323036369555822
-0.0325192704802766
-0.0325624633595385
-0.0325520877407997
-0.0325002958596472
-0.0322585605088336
-0.0315136388476146
-0.0298416508852502
-0.0268176881064316
-0.0221624648660831
-0.0158864101872248
-0.00838343557125509
-0.000441189382517423
0.00684270222257453
0.0122328483455492
0.0145956663143424
0.0131624467587276
0.00775449284409395
-0.00108765991760538
-0.0121100672883124
-0.0235052223866441
-0.033221434810004
-0.0393820106829781
-0.0407375299739357
-0.0370556456923166
-0.0293540821242452
-0.0198927523081955
-0.0118636872754258
-0.00876866433027918
-0.0135518474818705
-0.0276336975848849
-0.0500531184094849
-0.0769601655687561
-0.101694291210367
-0.115603024847651
-0.109595327678275
-0.0762173581579199
-0.0118415793182343
0.0815736664200503
0.195712884296503
0.316527827377096
0.426345608892379
0.507139784751182
0.544272958483907
0.529805722960756
0.464489970213091
0.357853109880938
0.226281019267098
0.0895708319470499
-0.0331488835451356
-0.127091276641511
-0.184212985801835
-0.203891744611731
-0.191928906828162
-0.158351261591722
-0.114710841265042
-0.0715745428682919
-0.0367158521279116
-0.014258702434659
-0.00475576852811125
-0.0059729034065282
-0.014044670601925
-0.0246702969413962
-0.0340974906913113
-0.0397470775469806
-0.0404394725910611
-0.0362797098238769
-0.0283185193639225
-0.0181188512419454
-0.00733493714944854
0.00262034503771365
0.0107773167057475
0.0166766768225651
0.020331587624768
0.0221258088468195
0.0226818024249362
0.0227246512185456
0.0229633977821272
0.0240018197115368
0.0262776082494251
0.0300262881070666
0.0352738522071457
0.0418629421647098
0.0495060772824801
0.0578510160105975
0.0665465341414725
0.0753004656128839
0.0839179346282025
0.0923074815908018
0.100454971639778
0.108377937873312
0.116073378435004
0.123467164455106
0.130374936510023
0.13648688004606
0.141381225878234
0.144560409492045
0.14550278732396
0.143727168883827
0.138863595638975
0.130715183032872
0.119297396798309
0.104851856566585
0.0878361625553996
0.0688873306513447
0.0487584641212627
0.0282395720486071
0.0080796575491064
-0.0110779650034033
-0.02874031473065
-0.0445817806424162
-0.0584298448713616
-0.0702288918261512
-0.0799999517157226
-0.087808337469488
-0.0937421627260982
-0.097904359990914
-0.100421156364584
-0.101460819297877
-0.101247136318604
-0.100056280517329
-0.0981972648535704
-0.0959803268189595
-0.0936765879676236
-0.0914779030883714
-0.0894734866560779
-0.0876548433845839
-0.0859450071650788
-0.0842394667270432
-0.0824484565135266
-0.0805311875876014
-0.0785095958996133
-0.0764546131071505
-0.0744533175376607
-0.0725742633432233
-0.0708429333477898
-0.0692318471660149
-0.0676689739233894
-0.0660645909578925
-0.0643451232600942
-0.0624761521319108
-0.0604662062708757
-0.0583562894380097
-0.0562022556778828
-0.0540534008151973
-0.0519330129230549
-0.0498302294786636
-0.0477063379487941
-0.0455089264266177
-0.0431879451638502
-0.0407146082098774
-0.0381021083325802
-0.0354184232855527
-0.0327822324805364
-0.0303443945907993
-0.0282639187721063
-0.0266840931453566
-0.025713160523313
-0.0254176381184267
-0.0258325544539631
-0.0269790704805999
-0.0288728973778592
-0.0315158327846919
-0.0348743753004025
-0.0388517336093579
-0.0432603926405767
-0.0478097522803935
-0.0521262694625443
-0.0558104772232728
-0.0585164355991193
-0.0600313066098775
-0.0603340935654642
-0.0596129559962507
-0.0582246921266771
-0.0565984850204527
-0.0551102133624551
-0.0539637500822734
-0.0531097148383248
-0.0522243704716625
-0.0507645393967332
-0.0480976406643794
-0.0436806153595004
-0.037245146662914
-0.0289461602987265
-0.0194349211051358
-0.00982306012817613
-0.0015222848182027
0.00401988687094819
0.00563443496178486
0.00272716529670017
-0.00450978312466366
-0.0150299736440929
-0.0270456922657259
-0.0383201958495307
-0.0465954575929796
-0.0500846468670311
-0.047943357991208
-0.0406197431353894
-0.0299793776797421
-0.0191235511368034
-0.0118698456548799
-0.0119276734646922
-0.0218749767644361
-0.042125805558931
-0.0701492772956181
-0.10021676476708
-0.123890861643208
-0.131331914941757
-0.113303274167413
-0.063532147869078
0.0191119947425048
0.129239663290839
0.254885593490266
0.379023974896645
0.482512783698464
0.54790723718876
0.563257332515813
0.524902024344298
0.438470167430997
0.317762440609323
0.181777716531613
0.0506693569874254
-0.0583041275601419
-0.133829645608549
-0.171952112344433
-0.175723466600157
-0.153430291310243
-0.116032905632856
-0.0745258493985177
-0.0378186041233643
-0.0114954479024451
0.00246861326169611
0.00519257623159274
-0.000133039842125467
-0.00944506602635184
-0.0188889205634202
-0.0255816124570937
-0.0279772736051832
-0.0258631246260391
-0.0200794591033458
-0.012086025755563
-0.003501986184113
0.00427383532507056
0.010301341791637
0.0141857518162164
0.0160352073374485
0.0163285819165035
0.0157432196126351
0.0149935769049341
0.0147142937577278
0.0153945269673764
0.0173546649493407
0.0207542967740243
0.0256182023215194
0.031863333660016
0.0393156435805093
0.0477202153999083
0.0567551362627772
0.0660538432441973
0.075235467327669
0.0839441259887667
0.0918950764288268
0.0989138243689638
0.104948615580585
0.110047498244294
0.114306537499841
0.117802173677029
0.120522949995624
0.122321587253772
0.122908904947878
0.121896266110964
0.118873140306142
0.113497939854047
0.105582126403035
0.0951481216688575
0.0824432004068464
0.0679048792038209
0.0520927141184029
0.0356095041157316
0.0190295064981881
0.00284600289149932
-0.0125512243209695
-0.026866709175281
-0.0398719835285859
-0.051379676765594
-0.0612298468276033
-0.0692902705070908
-0.0754716917379363
-0.0797565201707453
-0.0822290090796681
-0.0830892794246526
-0.0826424999129703
-0.0812666160204741
-0.0793641888703515
-0.0773030151114715
-0.0753570648820347
-0.0736660554931424
-0.0722257436521443
-0.0709080311670346
-0.0695049545313024
-0.0677910381373311
-0.0655920701988822
-0.0628393323370154
-0.0595921169902529
-0.0560266162092667
-0.0523989868028668
-0.048990615976096
-0.0460467385299792
-0.0437274376462491
-0.0420882480360192
-0.0410922217329096
-0.0406424510841728
-0.040623427408806
-0.0409410075444693
-0.0415468655858376
-0.0424350787200247
-0.0436135029380135
-0.0450671656852891
-0.0467305758064449
-0.0484776153101756
-0.050134289331477
-0.0515165246890773
-0.0524830482854505
-0.0529810020464901
-0.0530648514828286
-0.0528832801774048
-0.0526380421060322
-0.052522149899375
-0.0526530971774416
-0.0530265834127484
-0.0535115670891359
-0.0538881728117894
-0.0539140715167817
-0.0534008190891861
-0.0522799286181677
-0.0506360415732848
-0.0486928094675201
-0.0467578406463879
-0.0451486585986924
-0.044120576185724
-0.0438105482144246
-0.0442096062866375
-0.0451729429818344
-0.0464631736271342
-0.0478098143240408
-0.048969359954794
-0.0497777187704678
-0.0501862982427995
-0.0502696669454775
-0.0501995869581054
-0.0501930248778937
-0.0504460326466232
-0.0510625989470002
-0.0519907804273272
-0.0529859053783038
-0.0536176204872724
-0.0533235002608174
-0.0515023785568187
-0.0476394917923857
-0.0414495946044917
-0.0330093967583736
-0.0228419423412379
-0.0119221713312247
-0.00158568971200968
0.0066644246301051
0.0114358316442292
0.0117595074294731
0.0073608699362606
-0.00118440052273638
-0.0124609476906399
-0.0244132162039892
-0.034721357913904
-0.0412958874893137
-0.0427924464678765
-0.0390316547137304
-0.0312173342096479
-0.0218675424787924
-0.0144095609546878
-0.0124538879932408
-0.0188456358264637
-0.0346680302271656
-0.0584240805165869
-0.0856429851248084
-0.109130218880852
-0.119977801406022
-0.109273515273742
-0.0702369170520106
-0.00032602588438372
0.0972424409680029
0.213081483896841
0.332645889181765
0.438626978860265
0.514285682010793
0.546963722461677
0.530891155522174
0.468533468620707
0.370083698855387
0.251214968102779
0.129699087309235
0.0217898728716065
-0.0607279147960277
-0.11218442981551
-0.133139581221244
-0.129165769701688
-0.108802691594672
-0.0812979548146953
-0.054670444412324
-0.0344440743520366
-0.0231773079372818
-0.0207116520645891
-0.0249179686536305
-0.0326607818792453
-0.0407257793689856
-0.046529521208553
-0.0485175249522119
-0.0462428728218218
-0.0401918349092598
-0.0314649723983151
-0.0214209728353386
-0.0113629600664572
-0.00231674246332378
0.00507845035610923
0.0105775555405095
0.0142696828914745
0.0164863909496578
0.0177018972455614
0.0184411063935826
0.0192092317581629
0.0204486200332872
0.0225159708743653
0.025670467373135
0.0300704371498918
0.0357782258071
0.0427671059147164
0.0509239455484872
0.0600509917597703
0.0698755106855868
0.080070156564081
0.0902812720846197
0.10016406140759
0.109422357843586
0.117840293110614
0.125287204586555
0.131687804921473
0.136966958904901
0.14098686743518
0.143495982676256
0.144111455247534
0.142353595864406
0.137732282939969
0.129861987058996
0.118573323455988
0.103994992706727
0.0865864913006317
0.0671075161749012
0.0465248603824937
0.0258787025476766
0.00614056582031381
-0.0119093618772331
-0.027764446332593
-0.0412163081809588
-0.0523172015981101
-0.0612968002788517
-0.0684634232234471
-0.0741150371679865
-0.078475333105607
-0.0816663734743313
-0.0837238550188629
-0.0846460261894566
-0.0844541220735287
-0.0832436731759868
-0.0812147234642496
-0.0786720345227482
-0.0759889550011704
-0.0735416691876722
-0.0716359001664643
-0.0704491575742154
-0.0700006364597808
-0.0701536365582529
-0.0706531411938636
-0.0711922328880198
-0.0714872264997282
-0.071338680838548
-0.0706662634604716
-0.069514681705486
-0.0680297374658548
-0.0664091286632121
-0.06484483027182
-0.063478006400875
-0.0623763682823458
-0.0615318722422043
-0.060875334852344
-0.0603052804429005
-0.0597217812169354
-0.0590513204747857
-0.0582561965082484
-0.0573327223716977
-0.0563033046758796
-0.0552037383149601
-0.0540703493890002
-0.0529362500252842
-0.0518392902780459
-0.0508322797149486
-0.0499853815592405
-0.0493802541747168
-0.0490996247398701
-0.0492121146802425
-0.0497531341895108
-0.0507100112306511
-0.0520194328160389
-0.0535750309373825
-0.0552375707637571
-0.0568461538925165
-0.0582332353668411
-0.0592412383374153
-0.0597352314563628
-0.0596124387638611
-0.0588141923034369
-0.0573397904526303
-0.0552549353167609
-0.0526914008991019
-0.0498407931195542
-0.0469415506860645
-0.0442523104255214
-0.042010274247792
-0.0403847138073087
-0.0394379880912639
-0.0391011782677301
-0.0391714674895142
-0.0393412009246562
-0.039260276977383
-0.0386165648612152
-0.0372113702212975
-0.0350130343194327
-0.0321779110096634
-0.0290294405856074
-0.0259942748252079
-0.0235115651339536
-0.0219412739841288
-0.0214908310667155
-0.0221691673553122
-0.0237739475456546
-0.0259140450469598
-0.0280586469084612
-0.0295986986713061
-0.0299155211351815
-0.0284624744564465
-0.0248616377275625
-0.0190038640683955
-0.0111326449954197
-0.001889717325237
0.0077045909064005
0.0163624011736292
0.022735042106975
0.0256836861996929
0.0245553230299832
0.019398381764512
0.0110566374986788
0.00109428865139767
-0.00846175788382219
-0.015528875526879
-0.0184514529705795
-0.0164649736660406
-0.0100372590452615
-0.000981630220557759
0.00773986936239207
0.01254813468742
0.0100633025363142
-0.00191846146361092
-0.0234791443350903
-0.0519073698328983
-0.0815508498986443
-0.104373509422988
-0.111255614364576
-0.0938883446250163
-0.04691856412005
0.030157317456037
0.131901009927425
0.247077218387993
0.36019667851514
0.454255676020788
0.514119585307259
0.529757337997752
0.498492142082946
0.425642321551407
0.323349309720665
0.207895549748052
0.0962309596404718
0.00261569967056358
-0.0638059680394402
-0.100017881133577
-0.108687184868752
-0.096602707841328
-0.0725494160238687
-0.0451952405474352
-0.0214472130083417
-0.00553292505889087
0.00115824406813964
-0.000380332268002966
-0.00759978333698603
-0.0173362596770217
-0.0266427742167065
-0.0333603672072446
-0.0363690131932426
-0.0355490459557801
-0.0315413812312871
-0.0254120572864043
-0.0183193996331629
-0.0112603713702241
-0.00493447132606318
0.000281661027549637
0.00428462110086152
0.00715889280489746
0.00908823797924178
0.010290351649285
0.0109894273834713
0.011420304765412
0.0118431163313071
0.0125504936962086
0.0138598817365594
0.0160878645908655
0.0195068084724949
0.0242952763356101
0.0305029969712622
0.0380447283066829
0.0467215892153527
0.0562601031140817
0.0663588892325795
0.0767299946703571
0.0871188525544715
0.0972956611294817
0.107027518345813
0.116047259345902
0.124028602349111
0.130572729398658
0.135214188293886
0.137452210554324
0.136802821161505
0.132860203295292
0.12535927063016
0.114233919236799
0.0996598506157118
0.0820685748097197
0.0621289871457302
0.0407034596408348
0.0187844936549495
-0.00258667538204406
-0.0224143796666302
-0.039843860030092
-0.0542469975365547
-0.0652914027516003
-0.0729809571270747
-0.0776499480097687
-0.0799015825853139
-0.080501185740728
-0.0802465611809807
-0.0798388149600801
-0.0797774125510045
-0.0803036061737897
-0.0814044938801858
-0.0828676784874505
-0.0843629907504487
-0.0855307754078989
-0.0860621819481583
-0.0857568804262467
-0.0845472625837588
-0.0824912504307987
-0.0797457340763468
-0.0765299404295097
-0.073083302826971
-0.0696263069665988
-0.0663361280380045
-0.0633402695733928
-0.0607199047857285
-0.0585149173339884
-0.0567299562572747
-0.0553412570008327
-0.0543000942480856
-0.0535324917970308
-0.052942419679321
-0.0524231716781511
-0.0518714763874565
-0.0511973187156506
-0.0503306794952555
-0.0492290509748128
-0.0478829641189432
-0.0463147917088111
-0.044573435285136
-0.0427306567965782
-0.0408777437014378
-0.0391170652518281
-0.0375497139044676
-0.0362654664756743
-0.035335178989473
-0.0347998151892108
-0.0346562284259536
-0.0348481370980177
-0.0352681673245588
-0.0357695694181171
-0.0361865067164692
-0.0363643387351583
-0.03619443411659
-0.0356385706771531
-0.034731625292199
-0.0335648933913889
-0.0322590018274303
-0.0309327299712573
-0.0296747214581296
-0.0285298154292885
-0.0275073640256995
-0.0266047796736909
-0.0258320547352208
-0.0252284083304643
-0.0248677389566451
-0.0248483395163747
-0.025265093339329
-0.0261742428144724
-0.027567888501728
-0.0293675270320451
-0.0314344445451986
-0.033592414058951
-0.0356587658071366
-0.0374743434147386
-0.0389193764893413
-0.0399117485109972
-0.0403973171137911
-0.0403426989940764
-0.0397325998993034
-0.0385712363355557
-0.0368901813892736
-0.0347609636398369
-0.0323020800792247
-0.0296712460248413
-0.0270448586976326
-0.0245923472126197
-0.0224493260443108
-0.0206928921216666
-0.0193284949688723
-0.0182973525665656
-0.0175017869834422
-0.0168375343618371
-0.0162255841472018
-0.0156397992989756
-0.0151215254239429
-0.0147696340466041
-0.0147043843031694
-0.0150159486732956
-0.0157103756409703
-0.0166633156336782
-0.0175958597720688
-0.0180899504752273
-0.017650232914116
-0.0158018291443202
-0.0122057666906154
-0.00677413794354442
0.000238172951949408
0.00819678119225923
0.0161326944941224
0.0228747323162424
0.0272542228654522
0.0283513790711802
0.0257356577311684
0.0196366233877622
0.0109858616603339
0.00130012510169849
-0.00758691391157638
-0.0139075028266813
-0.0163942253445255
-0.0146763076595184
-0.00953526548715976
-0.0029312393724085
0.00225511746413179
0.00277729386926674
-0.00417269207977921
-0.0200365072473449
-0.0440425578077284
-0.0726843737267003
-0.0997517548215026
-0.117064202025057
-0.115913620266388
-0.0890249524825496
-0.0326384081327301
0.0518160895408324
0.156980171211734
0.270135378629901
0.375154101154066
0.455528216885023
0.497812569546628
0.494619685965696
0.446354087730985
0.361183271460312
0.253222488874466
0.139416299996385
0.0359617575154243
-0.0447967833269821
-0.096284158196014
-0.118108738940325
-0.115091253239959
-0.0953506989186103
-0.0680467167964321
-0.0413528369176444
-0.0210639636433621
-0.0100038894755949
-0.00818107100244517
-0.0134917078115554
-0.022696476939199
-0.0323978219565755
-0.039809884394424
-0.0432132947020375
-0.0420804272949025
-0.0369222684495528
-0.028950307885696
-0.0196681168047726
-0.0104982735897316
-0.00251385093040662
0.00369737246910128
0.00803731702050514
0.010795384595352
0.0124865142135255
0.0136850126794741
0.0148958536743026
0.0164819807487355
0.0186499400458619
0.021484390195432
0.0250074199411809
0.0292305219249005
0.0341779060904588
0.0398806476892187
0.0463527370856701
0.0535608533765653
0.0614012592397136
0.0696987370838031
0.0782329154078621
0.086780575589166
0.0951559020445435
0.103237153585576
0.110973331213646
0.118363302894776
0.125404944574585
0.132027091705516
0.138027449732503
0.143035724942968
0.146513587381516
0.147800293417785
0.146205792360118
0.141135209288084
0.132213259271611
0.119378872750351
0.102932157590449
0.0835240201557602
0.0620861398313517
0.0397142143240187
0.0175323410756573
-0.00343368076827942
-0.0223575313219381
-0.038678031233311
-0.052120726866407
-0.0626752241169545
-0.0705418825770483
-0.0760656184579241
-0.0796672253335837
-0.0817785087406484
-0.0827912716927052
-0.083029285356775
-0.0827422742075772
-0.08211449965612
-0.0812839917585813
-0.0803697372641784
-0.0794962228364236
-0.0788006939328513
-0.0784186712844957
-0.0784561625919541
-0.0789587546422961
-0.0798844067559095
-0.0810893154320397
-0.0823382893991885
-0.0833415225930499
-0.0838059918552343
-0.0834872791573141
-0.0822338057430415
-0.0800165144864722
-0.0769342824564609
-0.0731916041948121
-0.069058316836062
-0.0648254686355964
-0.0607644782555269
-0.0570926961686396
-0.053951660600623
-0.0514027542217368
-0.0494354048657473
-0.0479792814236466
-0.046919859842265
-0.0461222099738537
-0.0454614475445773
-0.0448512356181087
-0.0442645317852859
-0.0437448792161126
-0.0434026890917783
-0.0433887067295152
-0.0438472193238702
-0.0448647820444169
-0.0464307295057499
-0.0484176695764649
-0.0505872813321748
-0.0526265373704304
-0.0542100663456975
-0.0550704333183377
-0.0550558868182
-0.0541646515733002
-0.0525507818670875
-0.0504960792903297
-0.0483485455862295
-0.0464422129695888
-0.0450207338142349
-0.0441815843663692
-0.0438514979036504
-0.0438031779184159
-0.0437168806138344
-0.0432723128233043
-0.042241640370016
-0.0405567304329721
-0.0383349292530423
-0.035855731252213
-0.0334903418436677
-0.0316037519205599
-0.0304623736783798
-0.0301746314630704
-0.0306743939704117
-0.0317454154926973
-0.0330796835371869
-0.0343533943670627
-0.0352953240142226
-0.0357275849977045
-0.0355753342270485
-0.0348523242351628
-0.0336291400797545
-0.0319930190972335
-0.0300148516805217
-0.0277370921913222
-0.0251826682297153
-0.0223749218663292
-0.0193606072695754
-0.0162308968569872
-0.0131314594484387
-0.0102524829843705
-0.00780070942746008
-0.00596597567066972
-0.00489226576591434
-0.00465619546775435
-0.00525635941580766
-0.00661882942959948
-0.00861619661379617
-0.0110873847325135
-0.0138476728148898
-0.0166890313990127
-0.0193750386050301
-0.0216327019769371
-0.0231474133936257
-0.023574729338014
-0.0225792192761016
-0.0198965067047869
-0.0154059953179179
-0.00920295620550698
-0.00165659431433325
0.00656825180606077
0.0145491327973833
0.0212123881086568
0.0254986312778557
0.0265668810989351
0.0240051301264497
0.0179983193457511
0.00939741292326489
-0.000351280156663879
-0.00942791920818296
-0.0159940973622667
-0.0186316265063966
-0.0167780368475384
-0.0110430664327215
-0.0032931362401459
0.0035736649147848
0.00618433257011798
0.0015301097025218
-0.0120496712613109
-0.0339606804418367
-0.0607865716517886
-0.0863011553827308
-0.102211344398554
-0.0996349865133094
-0.0711194239656857
-0.0127992323101787
0.0738489412578304
0.181202344957649
0.296033474927564
0.401495635932656
0.480265427789776
0.518177467507638
0.507452860551642
0.448643328447551
0.350710664139956
0.229159519766672
0.102691673127309
-0.0107293343376019
-0.0973767513062422
-0.14998893752469
-0.168323027743945
-0.158117022495793
-0.128931391904991
-0.0915443222509975
-0.0555721990491819
-0.0278102536571598
-0.0115173898432115
-0.00660300815281011
-0.0104807280239981
-0.0192554530641735
-0.0289042722020551
-0.0361881856819849
-0.0391595703881776
-0.0372588255362549
-0.0310848837105374
-0.0219727097075304
-0.0115231745268004
-0.00120646451293199
0.00789367499022115
0.0151843101511085
0.0205410339345316
0.0241991965577071
0.0266068706350288
0.0282862834433905
0.0297320961410691
0.031350379973473
0.0334304099923984
0.036142614411551
0.0395558044722678
0.0436630379618793
0.0484082687365534
0.0537136870999174
0.0595070928867256
0.0657402634410876
0.0723892334948012
0.0794395285145194
0.0868676079085915
0.0946251343375044
0.102626557802463
0.110741765145819
0.118795596000525
0.1265686398768
0.133790324279903
0.140125075260787
0.145163735374767
0.148431345477616
0.149414595374035
0.147609900550141
0.142591922078014
0.134092444018631
0.122068201242624
0.106738534416244
0.088586502718349
0.0683246886925752
0.0468280680064393
0.0250426378028918
0.00388901195701284
-0.015819388556754
-0.0334351267698798
-0.0485119574217254
-0.0608150309637075
-0.0703068361400788
-0.0771189198262802
-0.0815223694587549
-0.083899875394227
-0.0847126753738747
-0.0844584953320052
-0.0836232921030965
-0.0826298294850191
-0.0817864640511072
-0.0812477533022385
-0.0810043728418402
-0.080910603155025
-0.0807411056106322
-0.0802611785285493
-0.0792956885394428
-0.0777807932197072
-0.0757821841461606
-0.0734745375719153
-0.0710937618779522
-0.0688797345573278
-0.067021440304957
-0.0656132965906531
-0.0646341132347528
-0.0639561935937917
-0.0633792649950659
-0.0626765763178584
-0.0616443638111747
-0.0601483809925954
-0.0581557107235065
-0.05573899333817
-0.053051954012263
-0.0502876597501299
-0.0476320846257349
-0.0452224231573749
-0.0431219440805384
-0.0413233073260957
-0.0397799481329341
-0.0384496762475379
-0.0373319432378917
-0.0364877811664632
-0.0360363218352273
-0.0361250147607754
-0.0368812833474851
-0.0383652659043423
-0.0405411000034695
-0.0432703049480901
-0.0463232361477128
-0.0494076359028439
-0.0522130060892593
-0.0544608532076746
-0.0559465005586447
-0.0565644260600491
-0.0563152084544908
-0.0552921149491148
-0.0536489749078909
-0.0515623016790502
-0.04920528060033
-0.0467396640899711
-0.0443172492548626
-0.0420811143672153
-0.0401625813561462
-0.0386706088110943
-0.0376702677237464
-0.0371558987430935
-0.0370349188159923
-0.0371352370858154
-0.0372362718073972
-0.0371159829542949
-0.0366054215810456
-0.0356377418451335
-0.0342731395463221
-0.0326884603325443
-0.0311380893069795
-0.0299021915862295
-0.0292330999083845
-0.02930510202728
-0.0301755641821934
-0.0317662662187676
-0.0338668417077609
-0.0361577222076911
-0.0382540180998921
-0.0397723080984922
-0.0404106363828614
-0.0400201976578536
-0.0386486856464693
-0.0365437926849699
-0.0341098607539714
-0.0318169077545616
-0.0300783831520901
-0.0291319209056432
-0.0289586744163351
-0.029263697034031
-0.0295273582611499
-0.0291271535890887
-0.0275104626701968
-0.024376327067117
-0.0198160475325708
-0.014372439129397
-0.00899282340227494
-0.00486671352865334
-0.00316547641833981
-0.00473691155912424
-0.0098320347899444
-0.0179402190341467
-0.0277896495793072
-0.0375418308509372
-0.0451675983908343
-0.0489390760767111
-0.0479282752219968
-0.0423881761732836
-0.0339033044355666
-0.0252244956178223
-0.0197524456982037
-0.0207138353685273
-0.0301661177026094
-0.0480427611364661
-0.0714922707221707
-0.0947622799300496
-0.109814320947107
-0.107708324155938
-0.0805883785361052
-0.0238907666213505
0.0617551088536949
0.169501465627165
0.28658609709075
0.396134182998945
0.480224258073921
0.523587554903936
0.517054694871372
0.459842912512414
0.360020388217037
0.232950919868294
0.0980849641624091
-0.0250700414899922
-0.12076612583311
-0.179705823120721
-0.200070301902857
-0.186832669091649
-0.149746087372431
-0.10066821983863
-0.0509299762692815
-0.0093110700973255
0.0190637249238687
0.0328598271052819
0.0338761661859895
0.0259126560934117
0.0135096887283603
0.000848150269486214
-0.00900564955340976
-0.0144365093981524
-0.015226565662905
-0.0122184995462063
-0.00683928535160872
-0.000618305469486265
0.00520032752775334
0.00988955419347943
0.0132952843846949
0.0157415823871412
0.0178426214157103
0.0202852972404338
0.0236358768206936
0.0282113778344644
0.0340395357424346
0.0409038407771241
0.0484435907920663
0.0562706468643287
0.0640722600378643
0.0716776172519892
0.0790727087565611
0.0863630969885126
0.093703345891486
0.101219434151081
0.108944307130826
0.116780579445321
0.124502296924093
0.131798306314676
0.13834131380735
0.143855132593636
0.148157348508133
0.151165498407262
0.152862784901754
0.153230639843722
0.152173215425595
0.149468556534589
0.144770463270371
0.137663981475761
0.127762741809015
0.114827969005768
0.0988796419397268
0.0802661322285766
0.0596700817490374
0.0380485799747447
0.0165194030362671
-0.00378818494167757
-0.0218901563155404
-0.0370763158532972
-0.0489833201542426
-0.0576062780136039
-0.0632588472313558
-0.06649445922491
-0.0680026690077792
-0.0685000903876132
-0.0686347529633833
-0.0689125839100873
-0.0696481758153712
-0.0709457445404161
-0.0727174991049999
-0.074735851837619
-0.0767039336244192
-0.0783282634782792
-0.0793819128269792
-0.079746055713811
-0.0794189204422124
-0.0784933557530516
-0.0771181859481988
-0.0754587875411008
-0.0736629336995257
-0.0718344793321515
-0.0700201322088266
-0.0682114798244708
-0.0663567465400231
-0.0643770473560708
-0.0621890569139793
-0.0597351948924502
-0.0570121347598138
-0.0540845250679687
-0.051079233520948
-0.0481632459061098
-0.0455083647099418
-0.0432480594283145
-0.0414409195391024
-0.0400578955744013
-0.0389984279465093
-0.0381265688357488
-0.0373156755296884
-0.0364924381825863
-0.0356675179400347
-0.0349383059071406
-0.0344603077145476
-0.0343992319245149
-0.0348803991769394
-0.0359476245271867
-0.037542429663577
-0.0395140097647608
-0.0416595288803395
-0.0437780602326244
-0.0457172996739899
-0.0474018690317079
-0.0488400695788556
-0.0501069535072642
-0.0513065378572975
-0.0525274107048693
-0.0538099537114921
-0.0551339340331968
-0.0564253532637313
-0.0575803270229803
-0.0585023373689965
-0.0591404474419688
-0.0595109075808245
-0.0596930180637384
-0.0598028381802071
-0.0599529671908376
-0.0602078705502137
-0.0605504827382071
-0.0608787969596388
-0.0610389096695693
-0.0608816329977274
-0.060321294252511
-0.0593786497395059
-0.0581930639324781
-0.0569926539879851
-0.056025303886601
-0.0554734501350011
-0.0553825572495618
-0.055622848806324
-0.0558912518812389
-0.0557541176182372
-0.0547237131376152
-0.0523512337982138
-0.0483182573348222
-0.0425194305418361
-0.0351343923334628
-0.0266759934703833
-0.0179893327336311
-0.0101794787134693
-0.00446156676158859
-0.00194405925136148
-0.00337567361381582
-0.00891108213775097
-0.0179650889509567
-0.0292128971458468
-0.0407615376645114
-0.0504830248874202
-0.0564667676205983
-0.057510670424894
-0.0535366378481263
-0.0458087526350545
-0.0368575679094795
-0.0300602570372609
-0.0288895474102429
-0.0359297437306969
-0.0518533886482495
-0.0746206826632822
-0.0991739518036208
-0.117841952470404
-0.121542596831793
-0.101680287167558
-0.0524071830162461
0.0272716613596554
0.132143585574442
0.250694099605892
0.366537015430791
0.461256602579306
0.518126173441982
0.525833298438784
0.481234786855785
0.390352233065015
0.267266255368902
0.131150190848026
0.0022179369204685
-0.102345199318804
-0.171455028663243
-0.201554830774566
-0.196254996061818
-0.164515531793693
-0.118008263384344
-0.0683882312009365
-0.0250918067713311
0.00596904843975021
0.0227286615671149
0.0264495077219511
0.0206541589454155
0.00985321408117725
-0.00161683777120072
-0.0104316447231399
-0.0147023157604808
-0.0139991758853187
-0.00906547156503145
-0.00135527639214282
0.00746089538520607
0.0159090696867757
0.0229802516988856
0.0282359829830498
0.0317649904266471
0.0340325509185745
0.0356833091400653
0.0373556174058916
0.0395440951620656
0.0425261194706557
0.0463551911313552
0.0509108886471525
0.0559802002703806
0.0613410082446322
0.0668284907297577
0.0723749474629569
0.078015442672327
0.0838565106538814
0.0900195264692028
0.096581263524159
0.103530021585673
0.11074522306574
0.11800379146239
0.125013272688441
0.131461203651917
0.137060886499305
0.141577898781762
0.144833650133373
0.146688196489655
0.147006280662225
0.145619007396263
0.142303610842458
0.136799417557903
0.128859901902662
0.118326171943581
0.10520351230468
0.0897208366620591
0.0723510966674649
0.0537795226948121
0.0348263340471657
0.0163445228962613
-0.000887164491511814
-0.0162595384323231
-0.0293985051701876
-0.0401857745259575
-0.0487343490078076
-0.0553323755815274
-0.0603698389388094
-0.064258395701589
-0.0673573806017513
-0.0699222577289131
-0.0720839495171095
-0.0738552616775795
-0.0751581711742104
-0.075869329250718
-0.0758769247225851
-0.0751328252223295
-0.0736848439709825
-0.0716850924961118
-0.0693766311207802
-0.0670590532514161
-0.0650368777940909
-0.0635649186818249
-0.0628078153550923
-0.0628212274926288
-0.0635530371235212
-0.0648624077112325
-0.06655328853223
-0.0684111699540395
-0.0702291230191022
-0.0718193566317464
-0.0730175473124883
-0.0736863375433772
-0.0737188791570336
-0.0730446837178542
-0.0716424795527955
-0.0695576374048123
-0.0669122331239443
-0.0638982778143188
-0.0607554832931143
-0.0577394549800047
-0.0550841583108161
-0.0529650929258309
-0.051475158671963
-0.0506209206709264
-0.050334339203347
-0.0504902146329355
-0.0509262950988973
-0.0514670002127919
-0.0519471345471135
-0.0522304760247502
-0.0522249513935014
-0.0518987905534706
-0.0512937133024563
-0.0505247862979566
-0.0497627178798724
-0.0492032120824818
-0.0490281002546768
-0.049361327709183
-0.0502293283200078
-0.0515414447411434
-0.0530992000590814
-0.0546300228046865
-0.0558364166143125
-0.0564535873528524
-0.0563052799901806
-0.0553420601101747
-0.0536515089454133
-0.0514430005152982
-0.0490149124827478
-0.0467075442044449
-0.0448449237136142
-0.043676297921646
-0.0433300660210827
-0.0437849551075523
-0.0448584138724146
-0.0462164018531246
-0.0474097742876465
-0.0479334472859745
-0.0472976781447022
-0.0451051726562745
-0.0411322130661434
-0.0354052211323461
-0.0282546934712419
-0.0203286091116418
-0.0125523207848428
-0.00602310757149676
-0.00183386057691657
-0.000843811382985227
-0.00344426555122329
-0.00938144277394695
-0.0176921046819612
-0.0267919876676854
-0.0347336358683479
-0.0396110748868772
-0.04004102907092
-0.0356162224769198
-0.0272157447788479
-0.017063596297566
-0.00845075802132218
-0.00509387523168097
-0.0101960054383822
-0.025375137795755
-0.0497037145909173
-0.0791405804911394
-0.106618410900773
-0.122949297511066
-0.118524025767686
-0.0855476616655032
-0.0203438194645813
0.0748639987612183
0.19127106374732
0.314296574580074
0.425906145859847
0.508051295353132
0.54645967024019
0.533834792429774
0.471608410722009
0.369733392432325
0.244532595908573
0.115167272049759
-0.000337331036811508
-0.0885002079893131
-0.142450647614565
-0.16230766166434
-0.154006601731841
-0.127083554010839
-0.0921027027837029
-0.0583686702245442
-0.0323701412710543
-0.0171450967092062
-0.0125130519620993
-0.0159341292300344
-0.0236639404490941
-0.0318851411070354
-0.0375800374913411
-0.039018567161815
-0.0358447861446626
-0.0288384211699611
-0.0194859912804687
-0.00950304884663957
-0.000417490144379273
0.00671750767323694
0.0114502353180398
0.0139043056488968
0.0146406507691023
0.0144626163856137
0.0142125184601787
0.0145974954269824
0.0160752040296559
0.0188158298162528
0.0227336194592526
0.0275643198680196
0.0329639788021988
0.0386085299990902
0.0442727003423955
0.049869531411445
0.0554462317601118
0.0611473530563564
0.0671596620696246
0.0736505481571645
0.0807141145523404
0.0883401166788781
0.0964097978515131
0.104707462507018
0.112934122664109
0.120718450820557
0.127625683732818
0.133165001436281
0.136800597045203
0.137979422568241
0.13618520360987
0.131012819316085
0.122245860841324
0.10992069016211
0.0943627052627592
0.0761801271512471
0.0562077551961107
0.0354109396518443
0.0147732948507183
-0.00481020805267288
-0.022620208991284
-0.0381670733639141
-0.0512026812184787
-0.0616937941504524
-0.0697736845205136
-0.0756875408695277
-0.0797386138422434
-0.0822403124561399
-0.0834817528890383
-0.0837092160153071
-0.0831177025880537
-0.0818483479201618
-0.0799955290362433
-0.0776266062171408
-0.07480729161884
-0.0716221854029447
-0.0681867729515966
-0.0646511544725859
-0.0611927255063078
-0.0579965378278701
-0.0552313897798587
-0.0530328942092434
-0.0514953289519268
-0.0506656759127389
-0.0505366706043796
-0.0510417197160398
-0.0520530812143635
-0.0533828797172691
-0.0547923156883707
-0.0560180692257352
-0.0568151981663971
-0.0570022248932396
-0.0564929925695941
-0.0553087438580836
-0.0535689768503119
-0.0514609774052037
-0.0491951033531103
-0.046961850288273
-0.0449039581050775
-0.0431046067452141
-0.0415873411134546
-0.0403275021498459
-0.0392748124693307
-0.038378812346593
-0.0376065943992925
-0.0369508427463792
-0.0364322517953031
-0.0360963643386969
-0.0360018168471707
-0.0362028641037737
-0.0367336113438106
-0.0375961403505049
-0.0387498521830294
-0.0401048048342081
-0.0415277112275018
-0.0428629473172704
-0.0439600310361978
-0.0446981672831854
-0.0450043120582763
-0.0448615329949262
-0.0443023747473495
-0.0433890473311346
-0.0421935665033773
-0.0407903888848087
-0.0392620078918683
-0.0377105631789081
-0.0362699629826435
-0.0351118722091123
-0.0344336502052085
-0.034420422563557
-0.0351894163321708
-0.0367357582573555
-0.0388956263758439
-0.0413361763571913
-0.0435810165019419
-0.045076159818587
-0.0452875522066719
-0.043809582062234
-0.0404656436285118
-0.0353871611268398
-0.0290536715358878
-0.0222715929510689
-0.0160784952262166
-0.0115795061822381
-0.00973819254925323
-0.01115464425286
-0.0158761727884655
-0.0232945633265308
-0.0321730164604425
-0.0408177230503147
-0.0473806208926214
-0.0502565166444427
-0.0485101295583799
-0.0422392702612262
-0.032769159959491
-0.0225905293625222
-0.0149918111810465
-0.0133876086719584
-0.0204183952172937
-0.03698465628639
-0.0614504319990658
-0.0892723713277403
-0.11326862472162
-0.124636262104136
-0.114655847553616
-0.0768088325819486
-0.00884076836574195
0.085789919552417
0.197581528337832
0.312067682620329
0.412253707295952
0.4819622194395
0.509310960119143
0.489420415524732
0.425597922248764
0.328639574538376
0.21441617500925
0.100398669601024
0.0020612404236857
-0.069926872101511
-0.111119033541005
-0.12316431338996
-0.112399773401669
-0.0877003841115463
-0.0582120219868804
-0.0315009406607987
-0.0124394358545669
-0.00290292760687236
-0.00215644493251324
-0.00768949247427053
-0.0162157670549057
-0.0245820503157353
-0.0304147240751147
-0.0324369824151848
-0.0304759002495805
-0.0252332200208531
-0.0179242787579597
-0.00989610597691896
-0.00231270387541911
0.00404598836756975
0.00886101233345165
0.0122387869183371
0.0145921748834623
0.0164822896254025
0.0184652675787296
0.0209723538721327
0.0242362975521136
0.0282711792394402
0.0329058726912648
0.0378566693129812
0.0428141885113523
0.0475233635388376
0.0518434152731108
0.0557767804021931
0.0594593793507511
0.0631181561523062
0.0670149468235563
0.0713938838195318
0.0764385535074336
0.0822403725157054
0.0887803828430663
0.0959221108697651
0.103406766036981
0.110846802131595
0.117726630799136
0.123423123759885
0.127250075879237
0.128523549678788
0.126644051913762
0.121186941504797
0.111982476006155
0.0991647376197527
0.0831793751442152
0.064750532304467
0.0448091570559127
0.0243879599395755
0.00449970232876758
-0.0139762567415849
-0.0303798012795708
-0.0443193335827882
-0.0556788587103964
-0.0645796504939944
-0.0713050798686841
-0.0762106340861892
-0.0796418493498722
-0.0818741030293086
-0.0830831671852796
-0.0833527655906472
-0.0827144278981398
-0.0812003419788828
-0.0788877863526368
-0.0759245412912158
-0.0725326634775574
-0.0689885050711863
-0.0655813696773234
-0.062564063002829
-0.0601120328136729
-0.0582989822813813
-0.0570896489509468
-0.0563526250173447
-0.0558958489987844
-0.0555165970612766
-0.0550488492218898
-0.0543956363771654
-0.0535433393012709
-0.0525564336096289
-0.0515509744512372
-0.0506537057813521
-0.0499632287274301
-0.0495263225665052
-0.0493312739841651
-0.0493157979205579
-0.0493885912403402
-0.0494587757712251
-0.049459451399232
-0.049354806109931
-0.0491335890201578
-0.048798382586401
-0.0483555008595491
-0.0478075190070655
-0.0471539840876805
-0.0464040391576965
-0.0455939382878633
-0.0447970080358517
-0.0441211593928027
-0.0436970572651745
-0.0436584625692706
-0.0441143561397919
-0.0451192826619563
-0.0466542135890026
-0.0486241729926762
-0.0508693329567522
-0.0531860164182866
-0.0553574391058522
-0.0571891253465473
-0.0585364006122575
-0.0593151181398891
-0.0594983234259399
-0.0591056048394267
-0.0581877811052267
-0.0568099119029122
-0.0550407969317339
-0.0529545389028099
-0.0506389527711243
-0.0482014302849927
-0.0457694728654977
-0.0434870378846469
-0.0415030965872773
-0.0399472642929471
-0.0388956499297588
-0.0383366889811733
-0.0381436669364361
-0.0380582970614758
-0.0376963268517674
-0.0365901874281597
-0.0342730647281475
-0.0303921231975746
-0.0248299314144743
-0.0178089011972511
-0.0099451387711594
-0.00221511833797088
0.00418292588769962
0.00805655693206966
0.00849047282599414
0.00510211643950533
-0.00178334182153088
-0.0110976311795258
-0.0211655081041755
-0.0300019280077947
-0.0357232254269645
-0.0370027301031133
-0.0334828290522746
-0.0260401689919191
-0.0168061550362392
-0.00888165474717909
-0.00574153342421582
-0.0103892377448774
-0.0243952535047805
-0.0470284448913114
-0.0747332849878428
-0.101184724269273
-0.118059553497348
-0.116512783958722
-0.0891578199743687
-0.0321549737484232
0.0531184273897976
0.159339744459503
0.273812868822715
0.38040178535147
0.462524632007059
0.506568622808558
0.5048852202426
0.45756067452013
0.37245218892842
0.263452890890391
0.147446828236599
0.0407735027247589
-0.0438822295619568
-0.0994534866692911
-0.124982176763581
-0.124743565953922
-0.106432793715579
-0.078988287575189
-0.0506039521260727
-0.0273281966548185
-0.0124246382354585
-0.00645360609524665
-0.00788527716284443
-0.0139889910290018
-0.0217436654071986
-0.0285670056861278
-0.0327520572540234
-0.0335974187664888
-0.0312874056021065
-0.0266117418829158
-0.0206241911413396
-0.0143321247055565
-0.00848025671362952
-0.00345031812446009
0.000733636636696628
0.00431903463465819
0.00769096011757106
0.0112321613783783
0.0152152847954131
0.0197471835308129
0.0247658674030886
0.0300820351452332
0.0354516702627588
0.0406569429698835
0.0455697387372527
0.05018409368997
0.0546188369953885
0.0590952414932061
0.0638922972962867
0.0692873316115142
0.0754974498489359
0.0826345348487647
0.090676702992391
0.0994560116521169
0.108664962712475
0.117880684097506
0.126597079556631
0.134255773476577
0.140276840688082
0.144094775718834
0.145199215860469
0.143176200598545
0.137749640567003
0.128823024397623
0.116513289186747
0.101164701700881
0.0833381324295791
0.0637787310542183
0.0433629692965853
0.0230237197664363
0.00365974739936703
-0.013954905599995
-0.0292475372502505
-0.0419009791593908
-0.0518757609299786
-0.059389001604474
-0.0648493074129258
-0.0687635799483429
-0.0716377835766211
-0.0738891801045392
-0.0757851325923597
-0.0774232489792852
-0.0787574321096987
-0.0796563851282753
-0.0799724227807374
-0.079603813310445
-0.0785396702028556
-0.0768764564629227
-0.0748002404473668
-0.0725430212384445
-0.0703308380453436
-0.0683372679945614
-0.0666493518412353
-0.0652537580349187
-0.064050377387893
-0.0628898095538157
-0.0616205194159455
-0.0601329603919033
-0.0583944430220977
-0.0564676096433802
-0.0545028702381064
-0.0527035451233335
-0.0512759743085392
-0.0503799698647325
-0.0500889509680082
-0.0503674567817787
-0.0510759633311936
-0.0520060529123712
-0.052934074527819
-0.0536748705101882
-0.0541233583766462
-0.054277382877881
-0.0542346021288121
-0.0541601052013533
-0.0542339841808067
-0.0545959207312821
-0.0552993462902787
-0.0562821576788975
-0.0573628586638949
-0.0582701414783068
-0.058701410029603
-0.0583928632410338
-0.0571838946771247
-0.0550649979212094
-0.0521985865268186
-0.0489015127968524
-0.0455886161287286
-0.042692269038797
-0.0405779823647778
-0.0394717133124183
-0.0394134917000431
-0.0402529843623901
-0.0416924699972371
-0.0433633974765908
-0.0449121488220107
-0.0460745599464716
-0.0467247181122275
-0.0468862631706523
-0.0467037335088322
-0.0463885641370947
-0.0461627659207673
-0.0462147284414002
-0.0466697678237563
-0.0475754305562491
-0.0489008186342532
-0.0505420639125881
-0.0523222944090057
-0.053984298730827
-0.0551873711701181
-0.0555212689045329
-0.0545438203044991
-0.0518465820106065
-0.047150800976833
-0.0404219786996457
-0.0319718688127715
-0.0225101779245002
-0.0131175200670268
-0.00512441600427311
0.000103257558438173
0.00144497108310684
-0.00168748917389382
-0.009132429462802
-0.0198952190899862
-0.0322407670111255
-0.0439735227652283
-0.0528773027177207
-0.0572377100217739
-0.056331254080024
-0.0507552679720254
-0.0424886068504155
-0.0346088784675877
-0.0306544734356823
-0.0337101236708482
-0.0453886126331876
-0.0649454390043654
-0.0887820618502916
-0.110561523285004
-0.122064451944356
-0.114747446062431
-0.0817603008591018
-0.0199954228510155
0.0683584442239709
0.175262980326838
0.287607353495254
0.389326571203217
0.46448544948434
0.5006281261731
0.491550844061282
0.438753731585244
0.351153121336092
0.243109535054331
0.13130195719089
0.0312862183527253
-0.0453933338033831
-0.0929003552203836
-0.111356211835633
-0.105789317985789
-0.0842347555400376
-0.0555672496915719
-0.0276003590041111
-0.00580913828471302
0.00718318844583177
0.0114106702028739
0.00886317145214613
0.0025495207024131
-0.00441643319681418
-0.00952240824243377
-0.0112637953731849
-0.00923748133653596
-0.00397776887571416
0.0033670941709569
0.0114101910984099
0.0188674120435336
0.0248091033421818
0.0287893912135528
0.03084590255333
0.031393628242448
0.0310590523148865
0.0305031301691702
0.0302731651180107
0.0307146355789033
0.0319588836504816
0.0339763266138387
0.0366620548216318
0.0399181538970743
0.0437095663451951
0.0480819212981275
0.0531392189214783
0.0589935176440562
0.0657108649804817
0.0732739154611066
0.0815663898471709
0.0903755669891907
0.0994098501696973
0.108326882771993
0.116761554081734
0.124344619700688
0.130713321160506
0.135520853937816
0.138446129929176
0.139201773613545
0.137543923094605
0.133290645911182
0.126348115654836
0.116735770128074
0.104604068519279
0.0902433385333712
0.0740795570584067
0.0566501070873192
0.0385600827104439
0.0204301337745306
0.00284697069877696
-0.013678489516707
-0.0287406248679455
-0.0420492277859793
-0.0534200214854202
-0.0627568720167667
-0.0700377558854583
-0.0753069070995472
-0.078670882820639
-0.0802996214834202
-0.0804322867134596
-0.0793793683853635
-0.0775108661002257
-0.0752298285668395
-0.0729372751723175
-0.0709913280071067
-0.0696618869860184
-0.0690899772909997
-0.0692662742091497
-0.070036212477318
-0.0711291044965746
-0.072206896492467
-0.0729276091030423
-0.0730100891238273
-0.0722800682591924
-0.0706858596059362
-0.0682876554279777
-0.0652304092144167
-0.0617076266676263
-0.0579247671579711
-0.0540747932931808
-0.0503322882380913
-0.046859160641923
-0.043810509854774
-0.041336078689691
-0.0395765623436155
-0.0386506793591152
-0.0386306495605698
-0.0395141121176014
-0.0412056694252685
-0.0435145056723032
-0.0461682492040354
-0.0488453788601923
-0.0512278293003059
-0.0530635912140204
-0.0542183899976791
-0.0546994812630119
-0.0546461284410122
-0.0542875733115114
-0.0538739298903042
-0.0535969296060737
-0.053527391035159
-0.0535905634889879
-0.0535840598649138
-0.0532322365526533
-0.0522668669998937
-0.0505161927977085
-0.0479754831763355
-0.0448362156957894
-0.0414675786271292
-0.0383569237873874
-0.0360194557152778
-0.0348926547268686
-0.035240238579639
-0.0370904764464918
-0.0402197074462304
-0.044178783723966
-0.04835779578458
-0.0520826512861339
-0.0547270151801875
-0.0558153042840085
-0.0550980455489135
-0.0525914517805547
-0.0485760527956301
-0.0435501851319322
-0.0381440651088919
-0.0330126225481328
-0.0287267481662621
-0.025676669766521
-0.024000865717006
-0.0235567195149116
-0.0239419203188309
-0.0245607992022006
-0.0247229873051706
-0.0237645738275487
-0.0211800432820798
-0.0167436387625157
-0.0105953272750409
-0.00327424894472894
0.00431097411513425
0.0109854188034224
0.0154873049524384
0.0167040228436499
0.0139219306424364
0.00703803865802739
-0.00331696733011436
-0.0157892809812455
-0.0284727866352922
-0.0392299724177164
-0.046112604020399
-0.0478074413197297
-0.0440220260443749
-0.0357188953253932
-0.0251103815175678
-0.0153569678567315
-0.00996865102346709
-0.011973900253165
-0.0229862255000939
-0.0423624932046734
-0.066690642554477
-0.0898329728903732
-0.103667678998745
-0.0995279987792472
-0.0701574348553427
-0.0118088491356057
0.07403096912224
0.179835302224897
0.292550084993266
0.395528277812865
0.471611267542068
0.506720480418793
0.493086984755198
0.431243139947138
0.330174334387233
0.205519389752616
0.0762593771030493
-0.0392388594448648
-0.126800742417843
-0.178783315792871
-0.194731190143694
-0.180405310996106
-0.145647436044167
-0.101751123323138
-0.0590098873126092
-0.0249506021494659
-0.00350280556741123
0.00491493515453651
0.00261340488807439
-0.00652334666601476
-0.0182416927771375
-0.0289027933973027
-0.0360862988933142
-0.0387765444701264
-0.0371983002396396
-0.0324261537976396
-0.0259066548798322
-0.0190209773327845
-0.0127812848833643
-0.00769932212227865
-0.0038114973491243
-0.000812750735149208
0.00175871986623761
0.00434437844163704
0.00724459518917088
0.0105762139214165
0.0142980087086671
0.0182763891877677
0.0223643867336383
0.0264709604832981
0.0306005185287438
0.0348533317652724
0.0393948379256199
0.0444102063439422
0.0500555936143488
0.0564130304123807
0.0634587697635053
0.0710542318961853
0.078958272543516
0.0868514503748312
0.094366223916809
0.101121306791568
0.106753797259475
0.110938432720278
0.113390766877449
0.113862120369845
0.112135085218217
0.108023289901289
0.10138003973354
0.0921234565015929
0.0802785819565923
0.0660235188558592
0.0497225129493564
0.0319351820044745
0.0133954136677612
-0.00504588750566309
-0.0225121103952891
-0.0382093842772491
-0.051528378969191
-0.062121374945884
-0.069942311233282
-0.0752380789655222
-0.0784862082862975
-0.0802920670552619
-0.0812727514031082
-0.0819531137279889
-0.0826907918177082
-0.0836427006634405
-0.084779202806166
-0.0859368536409325
-0.0868871598571427
-0.0874007283205912
-0.0872967668023224
-0.0864723750620834
-0.0849067469280266
-0.0826436242073503
-0.0797664689122638
-0.0763800496057911
-0.0726009090423787
-0.0685531432626785
-0.0643682173500062
-0.0601866012168064
-0.0561534182259261
-0.0524025897737583
-0.0490356427574572
-0.0461068099235162
-0.0436185002899069
-0.0415237893817918
-0.0397346105652991
-0.0381366321297915
-0.0366068454808278
-0.0350272456546697
-0.033295393623014
-0.0313389288093667
-0.0291346782406337
-0.0267229750741356
-0.0242085968498248
-0.0217472680873973
-0.0195187074917731
-0.0176868077560482
-0.0163550526359982
-0.0155347765458651
-0.0151402706970131
-0.0150102299779308
-0.0149462418361686
-0.0147596649186609
-0.0143168870361755
-0.0135679943211251
-0.0125476103511676
-0.0113506979760657
-0.010095391480486
-0.00888275495043133
-0.0077613317541528
-0.00670865310783308
-0.00564063964545228
-0.00444585524638708
-0.00302845935642916
-0.00134471113066601
0.000574669234939988
0.00262224367021691
0.00463659390674617
0.00644512597139131
0.00791113306186842
0.00897041363368407
0.00965099139978614
0.0100715534442177
0.0104133026891211
0.0108691574541068
0.011589893239898
0.0126509238774377
0.0140519979119103
0.0157489589787182
0.0177085309587479
0.0199670836088697
0.0226641041274983
0.0260252976816656
0.030291830412134
0.0356136851835034
0.041933857658226
0.048893713249936
0.0557949640292282
0.0616497117269725
0.0653277091477733
0.0657808768988644
0.0623049315845297
0.0547854674386173
0.0438647766247004
0.0309654240012632
0.0181303498732119
0.00768088399306942
0.00173581790574141
0.00167141763325108
0.00763707803467095
0.0182630743680449
0.0306846451607241
0.04095622065283
0.0448552127865815
0.0389856599217296
0.0219906346775629
-0.0044107145542216
-0.0348881329209139
-0.0607532643156677
-0.071159264358375
-0.0552035817669189
-0.00463672344951521
0.083371023414685
0.20411102937324
0.344555854127605
0.484389828242208
0.598938150835325
0.663601960184739
0.658946001509512
0.575288360494279
0.415632587230118
0.196099941582543
-0.0564066921402091
