-0.0253509840324227
-0.0279374345040284
-0.0303625227239165
-0.0324829482886147
-0.0341865673869836
-0.0353980277009344
-0.0360796247381807
-0.0362316364975449
-0.0358946654934755
-0.0351529557403165
-0.034135141471752
-0.0330090447518827
-0.0319694961298204
-0.0312210706706882
-0.0309593580089207
-0.0313535976815304
-0.0325302001773746
-0.0345530421091664
-0.0373960165419482
-0.0409082054098245
-0.0447806327745918
-0.0485312964056588
-0.0515272790903617
-0.053056747295626
-0.0524505235594917
-0.0492366089604847
-0.0432965950280211
-0.0349843838876458
-0.0251673293313045
-0.0151592182574823
-0.00653422856732231
-0.000839587110463313
0.000743758925467452
-0.00228201451968441
-0.00952118624231218
-0.0196529855100801
-0.0306196334796513
-0.0400278044003587
-0.0457046104439501
-0.0463007069499325
-0.0417992829774238
-0.0337805608516168
-0.025315521400667
-0.0204240165375111
-0.023127037705898
-0.0362360283959996
-0.0601296043164807
-0.0918396733976745
-0.124774250933167
-0.149321225606574
-0.154402893555206
-0.12980930103898
-0.0688819795896409
0.0290778998090384
0.157364904130486
0.301949143956376
0.443322164792613
0.559900865886355
0.63231942880926
0.647608771625649
0.602188856056119
0.50284078574318
0.36534214368752
0.211093205535986
0.0626207612198494
-0.0608742354464158
-0.146847309173741
-0.190941429435005
-0.196587120740141
-0.1730436723738
-0.132573077939522
-0.0875214614043648
-0.0479570122673199
-0.0202570819911263
-0.00674332378598282
-0.00621232693116546
-0.0150497454495705
-0.0285634273475033
-0.0422111544520992
-0.0524989924735845
-0.0574492456653366
-0.0566496510098806
-0.0509759296291596
-0.0421201166152881
-0.0320612237941889
-0.0225932635617988
-0.0149895598086136
-0.00984054717541668
-0.00706220282035271
-0.00604012046697254
-0.00585442870111642
-0.00552480725859133
-0.00422149936112172
-0.00140418266666027
0.00312854086737393
0.00927492835413197
0.0167289835201014
0.0251084547368193
0.034074758386796
0.0434141212745449
0.0530635773401516
0.0630829523895187
0.0735891229153564
0.0846776467974458
0.0963575915994377
0.108518356221057
0.120934942244747
0.133304772011863
0.145299351275686
0.156610773276193
0.166976777671434
0.176177193215531
0.184005788148413
0.190230685607861
0.19456042307277
0.196630820791538
0.196021638403206
0.192303710212514
0.185108799361648
0.174207767482435
0.159579693599569
0.141456102569036
0.120329711188494
0.0969244372974804
0.072131226782489
0.0469210007938038
0.0222501614299512
-0.00102540706013876
-0.0222149889688467
-0.0408292107707588
-0.0565875169397532
-0.0694028445011552
-0.0793525964408882
-0.0866443484875302
-0.0915813640701602
-0.0945294276527101
-0.0958846983676372
-0.0960426506864561
-0.0953698321819322
-0.0941816402910439
-0.0927292344350747
-0.0911967232730021
-0.0897070059205869
-0.0883327353842713
-0.087108528371805
-0.0860413173860853
-0.085117050644594
-0.0843036813003159
-0.0835522892628971
-0.0827993604137488
-0.0819728992742672
-0.0810032981339043
-0.07983756739344
-0.0784534685331369
-0.076868959550538
-0.075142851516815
-0.0733649313113067
-0.0716372202711663
-0.0700509769950275
-0.0686653493685967
-0.0674930611771773
-0.0664967106157469
-0.0655968491725696
-0.0646905113943979
-0.0636764473395012
-0.0624810028761047
-0.0610770213978368
-0.0594888182335686
-0.0577803798246995
-0.0560304703253411
-0.0543041034060499
-0.0526317056623252
-0.0510042736731088
-0.0493862904190632
-0.0477408653081527
-0.0460565838996337
-0.0443651385039591
-0.0427430137066243
-0.0412969896939111
-0.0401388781027688
-0.0393577611851859
-0.0389978316505329
-0.0390475169707873
-0.039442035723068
-0.0400780072153946
-0.04083599235709
-0.0416050592702976
-0.0423026942624828
-0.0428841799725813
-0.0433385871646739
-0.0436732972685984
-0.0438935841547421
-0.0439860806954722
-0.043913807003914
-0.0436260631299518
-0.0430803496775128
-0.0422680526728804
-0.0412334304017229
-0.0400774897026582
-0.0389436041908228
-0.0379880849499455
-0.0373442621709016
-0.037091177143834
-0.0372365212413643
-0.0377183065070112
-0.0384231061511586
-0.0392134359023837
-0.0399548050297475
-0.0405344154066983
-0.0408676182876575
-0.0408935708131731
-0.0405660789086955
-0.0398474759087582
-0.038711704762441
-0.0371581447025365
-0.0352319202985181
-0.033041842074123
-0.0307659777129075
-0.0286380066140729
-0.0269136847402751
-0.0258232614193899
-0.025520284637735
-0.0260390777644084
-0.0272723305607125
-0.0289768473897409
-0.0308098043340121
-0.0323907698255009
-0.0333777229757789
-0.0335401627937746
-0.0328111027592352
-0.0313037617496423
-0.0292877295942994
-0.0271304775768298
-0.025219314457014
-0.0238832485103647
-0.0233327083504851
-0.0236284785047297
-0.0246817261375975
-0.0262779609343568
-0.0281125675327962
-0.0298260207886432
-0.0310324819594593
-0.0313436023475934
-0.0303963591747984
-0.0278959535907896
-0.0236800419524127
-0.0177994988808948
-0.0105970302477795
-0.0027534119142694
0.00473259269254788
0.0106559526540055
0.0138117461890933
0.0132677015839061
0.00864378263367479
0.000321586215140634
-0.0104913749547378
-0.0218931426724913
-0.0316231323629626
-0.0375595266896195
-0.0382858222979916
-0.0335978156182049
-0.0248092982764269
-0.0147317183797625
-0.00725270951490133
-0.0065178777145389
-0.0158194972561559
-0.0363969263676632
-0.0664324428543357
-0.100555674590295
-0.130125393726226
-0.144426204798474
-0.13270851172573
-0.0867507947209528
-0.0033982455128066
0.113590779599175
0.253012007821271
0.397373923031381
0.525720153387904
0.61762000322332
0.657440579663946
0.63783660162418
0.561516715426891
0.440764907069745
0.294803248638927
0.145685359938222
0.0138012591672121
-0.0858788269682694
-0.145988777022417
-0.167052184045823
-0.156071585922853
-0.124012372538874
-0.0829353484570994
-0.0434710777737092
-0.0131103516833744
0.00449903012917312
0.00932280060843098
0.00403721973242132
-0.00720475070777334
-0.0200066677317026
-0.0307088288339949
-0.0369751704354108
-0.0379599623273739
-0.0341193270452962
-0.0267903173461076
-0.0176805759950425
-0.00839879658964171
-0.000119459964990741
0.00657383705514319
0.0116715180687226
0.0155912164655605
0.0189650212139054
0.0224257307247452
0.0264427082030308
0.0312352722224328
0.0367677148838558
0.0428106776496257
0.0490420143047221
0.0551568840153955
0.0609599851930403
0.0664204291794181
0.0716801141778037
0.0770179594735781
0.0827826626829485
0.0893130926759636
0.0968662519887042
0.105567931127355
0.11539259703847
0.126169863530754
0.137608324083515
0.149325433513476
0.160874253369349
0.171762556470995
0.181465082524523
0.189433954665876
0.195114072678812
0.197969149199757
0.197520510698049
0.193396037251274
0.185381845963326
0.173465800160061
0.157861247306072
0.139002701946563
0.117511890472235
0.0941401832322761
0.0696990464605765
0.0449919361284691
0.0207587966603514
-0.00236079877973862
-0.0238456357726793
-0.0432960491340497
-0.0604283416206428
-0.0750666558103118
-0.0871376324840519
-0.0966709160702507
-0.103804587936396
-0.10878997701983
-0.111987218665501
-0.113843234455938
-0.114847981691067
-0.115471998187345
-0.116096265604328
-0.116951086036269
-0.118081249322243
-0.119349486083173
-0.12048059223457
-0.121137570214116
-0.121011922567271
-0.119905828346495
-0.117786048492021
-0.114797424334315
-0.111234878195819
-0.107483277560921
-0.103941545871899
-0.100949415866098
-0.098732008395336
-0.0973704984364798
-0.0967994924528871
-0.0968262453047142
-0.0971646308237455
-0.0974773057150872
-0.0974215079932689
-0.0966958345600833
-0.09508551710076
-0.0925015758550087
-0.0890062141458015
-0.0848155872616692
-0.0802735579570731
-0.0757962822987821
-0.0717958043374343
-0.0685984667994298
-0.0663776858216454
-0.0651184915826952
-0.0646237623336593
-0.0645619220035589
-0.0645458935682893
-0.0642253404104182
-0.0633703096744306
-0.0619257023596356
-0.0600227489559749
-0.0579442170495732
-0.0560515936399953
-0.0546921366418258
-0.0541091314027652
-0.0543782903827164
-0.0553867300045644
-0.0568599117904326
-0.0584292600009269
-0.0597221795551752
-0.0604499752237361
-0.0604699229622462
-0.0598056658485401
-0.0586226558003998
-0.0571681996693876
-0.0556947974566939
-0.0543887316964076
-0.0533231075839803
-0.0524470437507885
-0.0516126520568613
-0.0506312142588728
-0.049341722715163
-0.0476707927851222
-0.0456648642027891
-0.0434841344922015
-0.0413603115855218
-0.0395320612784394
-0.0381784045467014
-0.0373695910775617
-0.0370483220189735
-0.0370443859586336
-0.0371161659084685
-0.0370061562615509
-0.0364961480916314
-0.0354503757479802
-0.0338395092145599
-0.0317429770896146
-0.0293307963256019
-0.0268287612044216
-0.0244728964298287
-0.0224610939994238
-0.0209117903580871
-0.0198400659301553
-0.01915889024731
-0.018707085537739
-0.018297870908242
-0.0177755195439899
-0.0170649495481043
-0.0162007656342141
-0.0153277207935557
-0.0146718843224953
-0.0144885685562959
-0.0149975439146018
-0.0163178654768912
-0.0184142412575394
-0.021064992852508
-0.023859072203235
-0.0262270262191567
-0.0275081868521728
-0.0270525013354704
-0.0243489757514643
-0.0191637829338093
-0.0116616522673973
-0.00247743199832405
0.00729543948684097
0.0162227228574323
0.0227549067737463
0.0255321402754332
0.0237106927601986
0.0172339214218749
0.00696955773185619
-0.0053456061249797
-0.0173757903105352
-0.0266460580826149
-0.0311184570254047
-0.0297704659407999
-0.0230375731121015
-0.0129820149163854
-0.00308087981250805
0.00240864909224235
-0.000543823343608997
-0.0145208644151572
-0.039478596827343
-0.0719280245247476
-0.104787719094035
-0.128125937761253
-0.13082922072649
-0.102992559193404
-0.0385779010874931
0.0622929143225077
0.192083119401189
0.336144408008171
0.474762251343579
0.586673919285659
0.653343935473637
0.66298442726406
0.613276261702772
0.51202724344894
0.375539875557435
0.22509560447392
0.0824835817112062
-0.0342705404497364
-0.113954330712501
-0.153398807191594
-0.156834452481343
-0.1337968606436
-0.096291442844279
-0.0559775313712256
-0.0219838753066406
0.000298660536274574
0.00939272582405066
0.00706406562963886
-0.00286515050613231
-0.0158513458982798
-0.0277959807945663
-0.0358344336423477
-0.0386669335350554
-0.0364680672595344
-0.0304937155256759
-0.0225418481618192
-0.0144187126103019
-0.00752569624717313
-0.00262959510521753
0.000174896622850798
0.00134513425983508
0.00167381162059004
0.00204409857440076
0.00321672313456748
0.00568962116016509
0.00964637831742103
0.0149866315331919
0.0214147511369419
0.0285548066675611
0.0360599999327309
0.0436919778226469
0.0513572192331662
0.0591005475426179
0.067066132896529
0.075441772156357
0.084402406735144
0.0940649825444832
0.10446089051099
0.115526415389151
0.127107229084473
0.138970362371892
0.150816315184004
0.162285515513444
0.172957634607965
0.182348218174447
0.189911854392489
0.195061838651303
0.197212156614044
0.195840060238864
0.190559400966765
0.181189288368872
0.167801735875137
0.150736004198076
0.13057473091561
0.10808539119737
0.0841383877489996
0.0596185464815095
0.0353480923602877
0.012034907008089
-0.00974914470189329
-0.0295653537508846
-0.0470935620727759
-0.0621197631462846
-0.0745346711025617
-0.0843432081963447
-0.0916768867827512
-0.09679765877372
-0.100083796621753
-0.101993849544695
-0.103011267552457
-0.103578496347432
-0.10403420950011
-0.104569230497355
-0.105213928176264
-0.10586225785436
-0.106327144310374
-0.106412078799444
-0.105978444037382
-0.104989725297204
-0.10352208915997
-0.101742292542503
-0.0998636321981329
-0.0980951965238303
-0.0965984777596643
-0.095460229184713
-0.0946840421586977
-0.0941979374751699
-0.0938726139215489
-0.0935447597873541
-0.0930411969172849
-0.0922018435242881
-0.090901609228748
-0.0890718222400039
-0.0867195388613713
-0.0839392632508541
-0.0809095078085099
-0.077869013894715
-0.0750740503121984
-0.0727458707214561
-0.0710223798246507
-0.0699280206808667
-0.0693708045760169
-0.069167232480068
-0.0690875777046425
-0.0689083012341981
-0.0684569467429145
-0.067638299693544
-0.0664379770122345
-0.0649079790931034
-0.0631440039281415
-0.0612640075071422
-0.0593927475576703
-0.0576516306204254
-0.0561503242541861
-0.0549769665224805
-0.0541861210121815
-0.0537863530650649
-0.0537314483242906
-0.053920180245132
-0.0542085654959801
-0.05443541700974
-0.0544571484929146
-0.0541828237793105
-0.0535979895149764
-0.0527680321922736
-0.0518185017431005
-0.0508982505861354
-0.0501376191616079
-0.049615596900963
-0.0493461863864789
-0.0492864402799795
-0.0493600600099614
-0.0494850425411609
-0.0495941514097967
-0.0496423426889698
-0.0496025207685953
-0.0494565271387827
-0.0491896758530813
-0.048793834575316
-0.0482775383300227
-0.0476755073185504
-0.0470482401076201
-0.0464667536449354
-0.0459859572032751
-0.0456179961296287
-0.0453197529563411
-0.0450044281761037
-0.0445770103658078
-0.0439819088514226
-0.0432436539284697
-0.0424821347407567
-0.0418923683076118
-0.0416919045727096
-0.042051566875227
-0.0430322404267829
-0.0445487242131227
-0.0463718264660486
-0.0481662616712855
-0.0495503212364075
-0.0501581707731398
-0.0496886063935217
-0.0479337824848438
-0.0447933768580849
-0.0402874933878661
-0.0345800870266227
-0.0280132902298427
-0.0211367990754423
-0.0147037962392747
-0.00960370252472586
-0.00671657556230954
-0.00670219148456578
-0.00976982139707592
-0.015499290244591
-0.022788287859963
-0.0299799476023727
-0.0351818178522781
-0.0367328148081264
-0.0337224327761895
-0.0264304044124941
-0.0165462735919511
-0.00705310830223091
-0.00171798899038598
-0.0042176398469327
-0.0170275020152919
-0.0402972759143299
-0.0710018608251089
-0.102668972453125
-0.125922076597904
-0.129929150706876
-0.104625943780127
-0.0433299285992263
0.0548501180963068
0.183491974543589
0.328810575431982
0.471369713040092
0.589399871227074
0.663091971306331
0.678877148088023
0.632593373319094
0.530652625807268
0.388827273522692
0.2289299021009
0.074251507780086
-0.0550574628642415
-0.145534297094521
-0.192136849059609
-0.197975080096274
-0.172383636693674
-0.12803068708618
-0.0778698015870871
-0.032630112728856
0.000719636663586192
0.0194080250550742
0.0243470779570507
0.0189939331423868
0.00797646013269933
-0.00417007014568117
-0.0139177873793809
-0.0192100071586274
-0.0194944078215913
-0.015432568853122
-0.00843348645512756
-0.000156251521367238
0.00790659563021658
0.0147019819909694
0.0197299801079105
0.0230188294781504
0.0250025815096103
0.0263491456139115
0.0277826770750285
0.0299343708111084
0.0332429610328279
0.0379124470369049
0.0439216827290499
0.05107129559844
0.0590502932107377
0.0675073224409676
0.0761166995437054
0.0846334839793068
0.0929334273758187
0.101033173132762
0.109085391543441
0.117344745171378
0.126105240039254
0.13561725015483
0.146000480727932
0.157173481693088
0.168818387386615
0.18039129167094
0.191176630452457
0.200372362643549
0.207185816209103
0.21092004562464
0.211036760395647
0.207191315327122
0.199243968539568
0.18725627125482
0.171480714389634
0.152347095913447
0.130443989201164
0.10649138556621
0.0813019360619068
0.0557317810542532
0.0306255097557681
0.00676171934982751
-0.0151946508789989
-0.0347291133155381
-0.0515019519780615
-0.065359824927839
-0.0763341405596367
-0.0846248623774681
-0.0905685938807785
-0.0945918530340796
-0.0971539629501725
-0.0986876606349269
-0.0995477118321087
-0.0999773017514522
-0.100098735623493
-0.0999301325448844
-0.0994245635595449
-0.098523228593327
-0.0972105216748784
-0.0955573421654919
-0.0937407292812054
-0.0920327183206529
-0.0907580990537741
-0.0902280820757769
-0.0906634223943552
-0.0921248936526179
-0.0944697375702739
-0.0973489949865771
-0.1002525436676
-0.102597287620128
-0.103841670731954
-0.103600405449937
-0.101730932879146
-0.0983691933306662
-0.0939049296413324
-0.0889020106717232
-0.0839829016264072
-0.0797048319568077
-0.0764561755080827
-0.0743951002994684
-0.0734411283972663
-0.0733173991601988
-0.0736302007563089
-0.07396494532071
-0.0739758007815993
-0.0734500783667549
-0.0723367024018444
-0.0707376858959823
-0.0688696281945697
-0.0670071974495385
-0.0654219962867094
-0.0643286951458945
-0.0638469891246168
-0.0639839060978278
-0.0646368892017549
-0.0656143673474631
-0.0666681174168621
-0.0675314819009445
-0.0679590644640957
-0.0677651165355608
-0.0668577548070407
-0.0652642643777612
-0.0631404783362455
-0.0607566705906468
-0.058455439349013
-0.0565844203931979
-0.0554166772011278
-0.055079986773933
-0.0555181147291304
-0.0565001079924134
-0.0576791564467943
-0.0586856171710643
-0.0592259177676907
-0.0591559865878832
-0.0585066214238355
-0.0574554270500076
-0.0562582399500957
-0.0551649220053665
-0.0543463161681866
-0.0538519992128679
-0.0536064989817235
-0.0534398792794271
-0.0531404857724363
-0.0525141360376644
-0.0514344819238191
-0.0498729923966238
-0.0479035219052904
-0.0456843038440554
-0.0434265597595667
-0.0413609160542273
-0.0397097584074863
-0.0386674300630892
-0.038384102930302
-0.0389463415734512
-0.0403494891970196
-0.0424633536538345
-0.0450004063526653
-0.0475012981174177
-0.0493535217821723
-0.049854822375086
-0.0483239921746854
-0.0442491860588971
-0.0374497455238178
-0.0282146101493793
-0.0173729012603305
-0.00625545280421044
0.00347569288507736
0.0101199639207101
0.0123038909480313
0.00933821608344471
0.00147247734119583
-0.0100341085020292
-0.0230712377505758
-0.0350619105864804
-0.0435161708194774
-0.0466518075784951
-0.043948630760323
-0.0364929438900937
-0.0269850269721203
-0.0193291544311372
-0.0178038167132601
-0.0259125350941743
-0.0451252989304508
-0.0738094194132626
-0.106683773061799
-0.135083642900576
-0.148182050227442
-0.13509070157381
-0.0875025008054632
-0.00230640452707727
0.116516722002847
0.257355887534738
0.402175737971362
0.529437401716059
0.618226473050977
0.652676447178753
0.625586633509567
0.540251265846679
0.409944856739642
0.25514057673418
0.0991747744640104
-0.0365083513734906
-0.136337316459834
-0.192926865291276
-0.207364025752392
-0.187670234646105
-0.1460650316165
-0.0958424845025833
-0.048617049261315
-0.0124652756331971
0.00881999492823053
0.0154412834920482
0.0105641522672633
-0.00107184130947997
-0.0145249419752453
-0.0257250399266846
-0.0321004418972735
-0.0327390207507088
-0.0281664187133936
-0.019881852023657
-0.00980609853336166
0.000224369434504598
0.00882495297968268
0.0152497491076016
0.019401730711488
0.0217056256698824
0.0229022394816227
0.0238260428696366
0.0252173832217223
0.0276014131434308
0.0312435371109812
0.0361717211816708
0.042243620719112
0.0492322942637826
0.0569067285438157
0.0650900349403559
0.0736868115447042
0.0826798595441554
0.0921034147376978
0.102004145320195
0.112402056917587
0.12326131249118
0.134476425733368
0.145873694824528
0.157222961607863
0.16825216903677
0.178657237416433
0.188102566891822
0.196212619520414
0.202560913853031
0.206666691066723
0.20800948899142
0.206067921913878
0.200382549670901
0.19063538473053
0.176731829093338
0.158866518771293
0.13755449562962
0.113614098531072
0.0880973532426003
0.0621756632071379
0.0370003423682785
0.0135652080800686
-0.0074010842326491
-0.0254925997484017
-0.0406258132302223
-0.0529874322095166
-0.062947356303974
-0.0709592668605988
-0.0774703311173224
-0.0828551440051091
-0.0873802358259191
-0.0911974438874674
-0.0943591766271466
-0.0968465770130621
-0.0986023101690032
-0.099562012207572
-0.0996808646007744
-0.0989532646851166
-0.0974242007815806
-0.0951914693210113
-0.0923988247004577
-0.0892215058105437
-0.085847049824741
-0.0824554846368145
-0.079203330883497
-0.076214913816685
-0.0735823996351172
-0.0713733053786425
-0.0696416418133083
-0.0684370908058634
-0.0678066830830737
-0.0677859654342515
-0.068380988802231
-0.0695467717668565
-0.0711703575650731
-0.0730662938996661
-0.074989348081474
-0.0766642385819625
-0.0778266331422773
-0.0782656979160965
-0.077857645249276
-0.076582199207278
-0.0745186614481482
-0.0718238038009386
-0.0686984751811113
-0.065352051320652
-0.061973001415785
-0.0587106383972373
-0.0556691918607472
-0.052912110595498
-0.050472658455962
-0.0483665531413571
-0.0466032994792167
-0.0451942437721348
-0.044156507666506
-0.0435127096763049
-0.0432870040919613
-0.0434984722996462
-0.0441530472215469
-0.0452350312520158
-0.046699361613191
-0.0484662246411972
-0.0504199123683025
-0.0524134792881818
-0.0542799595098082
-0.0558500060158186
-0.0569746966789276
-0.0575506090941349
-0.0575424037041151
-0.0569969791150298
-0.0560435310664679
-0.054875867235758
-0.0537172029511581
-0.0527730127063698
-0.0521828235584254
-0.0519846849740648
-0.052104448372052
-0.0523755984172078
-0.0525858305502606
-0.0525371514584607
-0.0521008918214219
-0.0512502667813219
-0.0500606554990725
-0.0486785403136272
-0.0472701762847232
-0.0459675009691678
-0.0448297131023237
-0.0438338365839969
-0.0428977452577052
-0.0419277417900596
-0.0408738375476654
-0.0397725628396401
-0.0387607349100149
-0.0380529165927559
-0.03788673420577
-0.0384493871105221
-0.0398028841926419
-0.0418251375054236
-0.0441811235309183
-0.0463343476421119
-0.0476038147909988
-0.0472651354356861
-0.0446862851223244
-0.0394794954638967
-0.0316420754695764
-0.0216529773794755
-0.0104917217953784
0.000445472709751384
0.00953990997627691
0.0152371887000052
0.0163804657704865
0.0125208263688521
0.00412550669566433
-0.00738625990648425
-0.019821923528798
-0.0306081904484318
-0.0373463970071541
-0.0384305542605758
-0.0335912783561437
-0.0242157156232265
-0.0133124630502044
-0.00504475678350838
-0.0038417133961431
-0.0132050225689867
-0.0344370280569425
-0.065597797934443
-0.101023194381021
-0.131678106902817
-0.146468903548973
-0.134411344730242
-0.0872895531555725
-0.00221948295929683
0.116572492069898
0.257366052871264
0.402291749955418
0.53031155947483
0.621276654265731
0.660139196018203
0.640261431409869
0.564934750167249
0.446671927322914
0.304443340316356
0.159597041828778
0.0315384182074189
-0.0657613782586302
-0.125682748902219
-0.149056079478441
-0.14269227197977
-0.116939882343686
-0.0829871461064968
-0.050544878173454
-0.0263266147952639
-0.0134736236439882
-0.0118320086731038
-0.0188267365882837
-0.0306108573036564
-0.0431882874249955
-0.0532884028809689
-0.0588769193402691
-0.0592901614983325
-0.0550584271881606
-0.0475293227609271
-0.0384136879859028
-0.0293617455785018
-0.0216455291375413
-0.0159856841067525
-0.0125245649621932
-0.0109188844612798
-0.0105075326365849
-0.0105047161951057
-0.0101739193636488
-0.00895129434173399
-0.00650422663684159
-0.0027279694391902
0.00230357877756921
0.00841039424473297
0.0153800184875312
0.0230256642683366
0.0312196929639881
0.0399013027288379
0.0490635527083354
0.0587282112028438
0.0689171098518613
0.0796267084240101
0.0908097651841361
0.102365167005564
0.114134459843609
0.125901846172839
0.137393901891212
0.148276417948056
0.158148705432724
0.166539836243261
0.17291489834725
0.17670004896517
0.177331530352343
0.174326618862586
0.167366207390714
0.156372288732915
0.14156137938482
0.123458124349503
0.102861373682014
0.0807654680874197
0.058249225928389
0.036351988080424
0.0159589557347334
-0.00228376870581481
-0.0180107894920696
-0.0311323440493014
-0.0417898288986569
-0.0502865367497264
-0.0570103474575212
-0.0623624460674922
-0.066700826569944
-0.0703022164093868
-0.0733431794693599
-0.0759004523340729
-0.0779700081338697
-0.0795019481108547
-0.0804441455951863
-0.0807836992762965
-0.0805742227906542
-0.0799402060298754
-0.0790566187739703
-0.0781101643396226
-0.0772547732305259
-0.0765755695218975
-0.0760723662151453
-0.0756673844093321
-0.0752345806706906
-0.0746416977663784
-0.073792567124808
-0.0726573513792812
-0.0712822809390358
-0.0697767907216633
-0.0682829215249097
-0.0669372953431587
-0.0658379023381967
-0.0650254234104381
-0.0644830198925247
-0.0641522156168907
-0.0639581131434531
-0.0638355231865029
-0.0637482694111344
-0.063696410409829
-0.0637097854429408
-0.0638301700554283
-0.0640874130783694
-0.0644766975976503
-0.0649443127128913
-0.0653877049223025
-0.0656719798838811
-0.0656602399602309
-0.0652506747882243
-0.0644104482195875
-0.0631958417622346
-0.0617503338563266
-0.0602775707957125
-0.0589936722496057
-0.0580707103556971
-0.0575876317155593
-0.0575042188384548
-0.0576674215849934
-0.0578492251379627
-0.0578049139657455
-0.0573343946438699
-0.0563294589667038
-0.0547956236443616
-0.0528454729639214
-0.0506681441752583
-0.0484846877972334
-0.0465007526235364
-0.0448668779572941
-0.0436539236987372
-0.0428478932239117
-0.042364724336154
-0.0420813439687001
-0.0418750074253158
-0.0416601328274423
-0.041411866328376
-0.0411690245987976
-0.0410153533305563
-0.0410454138424481
-0.0413269309551165
-0.0418724472205574
-0.0426291648049546
-0.0434890613235792
-0.0443149050984318
-0.0449739604617928
-0.0453706452200843
-0.0454713756713628
-0.0453174873593852
-0.0450237186604843
-0.0447600852071903
-0.0447156529122784
-0.045045636543574
-0.0458088547440687
-0.0469094145580262
-0.0480618835743914
-0.048800008819517
-0.0485427673961897
-0.0467178363476179
-0.0429241871496878
-0.0370976218209471
-0.0296316448985516
-0.0214063936198239
-0.0136935530942376
-0.00793423129617597
-0.00542318587766045
-0.00696611745993757
-0.0125964100819773
-0.021436688531045
-0.0317669876891501
-0.0413185730286528
-0.0477587050313186
-0.0492784425024017
-0.0451551879021464
-0.0361444879140902
-0.0245685742361245
-0.0140146365879131
-0.0086303757846239
-0.0120980228663333
-0.0264648994228672
-0.0510881477103123
-0.0819896554582092
-0.111891329778789
-0.131096179325336
-0.12920074594778
-0.0973979297954241
-0.0309101236265903
0.0690490886153723
0.194384338978949
0.330717585032898
0.459554384178328
0.561672511594241
0.621005894572456
0.628082274191273
0.5821169523481
0.491183561745134
0.370397614612072
0.238600103106597
0.114429811900875
0.0127883429447132
-0.0574925596416043
-0.094381832732614
-0.101844445902192
-0.0879381891554519
-0.0624349311659784
-0.0345792438238567
-0.0114385652429072
0.00293260553107363
0.00752219658126948
0.00376572302208515
-0.00539926567163829
-0.0165469319382004
-0.0266172622912864
-0.0334728106945868
-0.0361174862379589
-0.0346183354611926
-0.0298234428936435
-0.0229881219506795
-0.0154122001017787
-0.00816288234097087
-0.0019208475814915
0.00304883461475739
0.00682750222189648
0.00971779656505127
0.0121076156615011
0.0143593732047856
0.0167449268353355
0.019428901399495
0.022489170129999
0.0259564084257162
0.0298549796678519
0.0342323734112456
0.0391708945565539
0.0447812217999805
0.0511818883790883
0.0584714234366004
0.0667008356898922
0.0758533102651639
0.0858353904271073
0.0964800222765138
0.107558082590627
0.118793041879582
0.129873805052644
0.140462722145279
0.150198169406136
0.158693483925639
0.16553627355415
0.170293769415108
0.172530084149
0.171839169251644
0.167892653266875
0.160495426344673
0.14963615333318
0.13551792445111
0.118557820529472
0.0993523658975626
0.0786155190636033
0.0571034378206539
0.0355431547561844
0.0145795056489614
-0.0052528038094102
-0.0235341694703422
-0.0399511427385642
-0.0542847873594134
-0.0664049380597696
-0.0762733146527613
-0.083952282027292
-0.0896117363061261
-0.0935256766341208
-0.0960526049040243
-0.0975987645707121
-0.0985686780680152
-0.099311956574489
-0.100077651700429
-0.100986560108954
-0.102027930311333
-0.103081278782952
-0.103958341978411
-0.104455958751905
-0.104408622868597
-0.103729849549406
-0.102434118255215
-0.100635210562973
-0.0985214925848554
-0.096313665904099
-0.0942150189480927
-0.0923667120086651
-0.0908195860741058
-0.0895293302179531
-0.0883752141309137
-0.0871962079097657
-0.0858339989135313
-0.0841714054966782
-0.0821572971972702
-0.0798142077389266
-0.077230071472648
-0.0745389348711983
-0.0718965384003282
-0.0694559457320697
-0.0673468126725335
-0.0656602084353912
-0.0644396839163413
-0.0636786066786425
-0.0633232691107492
-0.0632807168726673
-0.0634299696747631
-0.0636355613328685
-0.0637626524431398
-0.0636927299308588
-0.063338174994326
-0.0626533821726633
-0.0616400515062735
-0.0603448637537053
-0.0588491952110266
-0.057252791637231
-0.0556554073482677
-0.0541408921227962
-0.0527667245735154
-0.0515597447227404
-0.050517257443845
-0.0496121207494357
-0.0488004260196357
-0.0480305206662714
-0.0472522839492738
-0.0464256163409174
-0.0455270233009334
-0.0445532336809002
-0.0435212375391772
-0.0424648556557587
-0.0414287257015542
-0.0404612519182637
-0.0396082727864975
-0.0389084390961611
-0.038389741941629
-0.0380656306989511
-0.0379300112242389
-0.0379526810121494
-0.0380784528485613
-0.0382327447879387
-0.0383339100138874
-0.0383094676755836
-0.0381112659075328
-0.0377245544772507
-0.0371681690168081
-0.0364865841935859
-0.035737800025217
-0.0349824774415185
-0.0342788837384695
-0.0336852124095988
-0.0332665763886011
-0.0331002478031275
-0.033271680759257
-0.0338564658167343
-0.0348885933352734
-0.036321133575057
-0.0379898632699166
-0.0395924146481453
-0.0406946902661739
-0.0407726414312167
-0.0392915750613647
-0.0358173186668334
-0.0301439108931173
-0.0224119407833441
-0.0131834837341042
-0.00343885811518167
0.0055286853318291
0.0123214828206649
0.0157205301340684
0.0149862772606837
0.0101033511205672
0.00189650434809328
-0.00803432978928348
-0.0175759307555963
-0.0245324151539673
-0.0271522639954729
-0.0246440315265673
-0.0175545666362006
-0.0078887430196859
0.00111783175915043
0.00560194126343075
0.0019982930352034
-0.011859484852499
-0.0356948799401079
-0.0660859960810576
-0.09638089199262
-0.117420509939919
-0.119092540609756
-0.092517592844852
-0.0324434030267264
0.0607354438061737
0.179936306612668
0.311774221204311
0.438502239833143
0.541219851560852
0.603672418708426
0.615726188984434
0.575613895065166
0.490330874399705
0.374054107986654
0.245006450760312
0.121610470646346
0.0189263033281496
-0.0537923944553363
-0.093979277660218
-0.105090856363723
-0.0947980760077786
-0.0726426306805769
-0.0477772825560795
-0.0272642976730251
-0.0151787958883574
-0.0125304951888752
-0.0178353588716282
-0.0280673903479743
-0.0397028230835495
-0.0496171810354308
-0.0556829060312022
-0.0570131336181872
-0.0538830005963543
-0.0474193928763583
-0.0391775863861135
-0.0307203109349776
-0.0232884892987218
-0.0176136365999328
-0.0138804106812279
-0.0118130733211638
-0.0108378624409657
-0.010267222603442
-0.00946005653332548
-0.00792942889580993
-0.0053887016353546
-0.00174331842144606
0.00295461377941318
0.00856869669134857
0.0149397012677616
0.0219336662493546
0.0294702040591349
0.0375298269211507
0.0461432009022921
0.0553680325400527
0.0652605504815829
0.0758482832792185
0.087109387225267
0.0989613599540565
0.111258750196517
0.123796240892167
0.136311732212213
0.148484929869018
0.159930359273673
0.170188481787609
0.178722924862554
0.184933762304759
0.188194695103464
0.187915783786596
0.183624975201151
0.175054061067814
0.162210517235036
0.145417290901209
0.125308087758022
0.102774795136721
0.078873985259038
0.0547083026880062
0.0313039029824921
0.00950584694611358
-0.0100908018544815
-0.0271646629427028
-0.0416471871263618
-0.0536672346576488
-0.0634770230814929
-0.0713769241402757
-0.0776539153867288
-0.0825428138787098
-0.0862125904513692
-0.0887740587904587
-0.0903014142561852
-0.0908588367033543
-0.09052436378102
-0.0894058856330325
-0.0876474524573529
-0.0854268334758098
-0.0829464701445566
-0.0804197182207069
-0.0780535217761574
-0.0760284303617315
-0.0744777050686966
-0.0734689838069951
-0.0729935218512978
-0.0729678094767955
-0.0732495368451072
-0.0736653271182785
-0.0740435808945158
-0.074244094635888
-0.0741774765262609
-0.0738112176858666
-0.0731641550800246
-0.0722949670449092
-0.0712914546583484
-0.0702652190710469
-0.0693521094347096
-0.068714324332486
-0.0685369322216129
-0.069011215795191
-0.0703006189675987
-0.0724918400311603
-0.0755415460535614
-0.0792350530072898
-0.0831744695314851
-0.0868091245135136
-0.0895112254455925
-0.0906869390056693
-0.0899009728796328
-0.086985018457616
-0.0821000908473871
-0.0757314201294276
-0.0686111828710473
-0.0615845794064176
-0.0554513562352767
-0.0508213050499452
-0.0480164965176434
-0.0470383235172774
-0.0475998764936223
-0.0492092652904117
-0.0512805701734403
-0.0532470764548827
-0.0546551614294202
-0.0552243391891018
-0.0548674094979397
-0.0536730700356871
-0.0518605366211379
-0.0497200661315703
-0.0475535462421579
-0.0456257883457511
-0.0441316426894424
-0.0431788143300678
-0.0427830940540709
-0.0428724384898168
-0.0432982810948415
-0.0438546309502482
-0.0443059291086799
-0.0444228041662042
-0.0440218467778499
-0.0430027256834814
-0.0413744892269966
-0.0392635265681191
-0.0368986601429408
-0.0345735460407506
-0.0325918156761523
-0.0312053698857296
-0.0305601997695625
-0.0306653719457647
-0.0313969737854276
-0.032538939538323
-0.0338493256608235
-0.0351292971965012
-0.036268511716844
-0.037247465293398
-0.038092760574918
-0.0387992936351087
-0.0392472686940934
-0.0391474498981773
-0.0380442048849008
-0.0353933305336309
-0.0307114136689412
-0.0237684854869827
-0.0147726857953899
-0.00448382552695159
0.00580037754558218
0.0144143187541182
0.0196374343808809
0.0200908023808895
0.0151230925002785
0.0050801329044125
-0.0086293276617209
-0.0237149601056927
-0.0374189010909012
-0.0470919762126936
-0.0508194503478084
-0.0479625286827942
-0.0394837076025013
-0.0279484830302541
-0.0171422159882795
-0.0113081324007465
-0.0140961458456022
-0.0274012525408243
-0.0503455363250693
-0.0786946045436528
-0.104972723000608
-0.119434591582318
-0.111867778301925
-0.0739672160263978
-0.00179830657833233
0.102278113199595
0.228837643315403
0.362202901653555
0.482888636789098
0.571286029067963
0.611785513552516
0.596316885187412
0.526348823105068
0.41275405584066
0.27352229677531
0.129910534731345
0.00204950434366811
-0.0948726781572248
-0.152972805582956
-0.172181286778503
-0.159026280731908
-0.124233706547329
-0.0798809724184581
-0.0368142492751753
-0.00284096452694052
0.0180710926092376
0.0256314130113822
0.0223490151727797
0.0122893867353232
-0.000183891152096131
-0.0114111712672545
-0.0190307768929262
-0.0221382450098099
-0.0210850768057248
-0.0170522690610893
-0.0115506840696812
-0.0059792892397332
-0.0013268297628182
0.0019515336478582
0.0038994706124551
0.00491634832441558
0.00556861354925827
0.00641339602736972
0.00787418359628784
0.0101852985688116
0.0134002174303687
0.0174433041554688
0.0221778430221956
0.0274655783476556
0.033202242462553
0.0393260499575617
0.0458073302481475
0.0526331466557775
0.0597987110434611
0.0673091862990221
0.0751861175949747
0.0834677728113694
0.0921945572665961
0.10137779691403
0.110958680732915
0.12077007137657
0.130514540917212
0.139766949436687
0.148001672501138
0.154637528535946
0.159090811997227
0.160828638863428
0.159418495503863
0.154572570988621
0.146185542699233
0.134362021122672
0.119426543794164
0.101907770509178
0.082491913844615
0.0619485196751534
0.0410415622250719
0.020446060256659
0.000691425086778209
-0.0178538542303746
-0.034954207603691
-0.050448037099958
-0.0641809425216094
-0.0759573005037883
-0.0855304845968518
-0.0926387995763475
-0.0970777775568375
-0.0987855545519443
-0.0979119379883343
-0.0948458392864178
-0.0901882046025459
-0.0846737353610849
-0.0790591322029736
-0.074003984726396
-0.0699708977466557
-0.0671652764640868
-0.0655256695841093
-0.0647654508924955
-0.0644568698462746
-0.064139580349755
-0.0634294227589316
-0.0621022557361042
-0.0601336697409651
-0.0576873599643129
-0.0550590602170716
-0.0525943926865123
-0.0506039533937496
-0.0492965319868079
-0.0487437947904686
-0.0488804591937889
-0.0495353586333829
-0.0504820587700729
-0.0514940638552444
-0.0523904180152185
-0.0530624765632172
-0.0534794648662658
-0.0536761466321548
-0.0537288658459493
-0.0537267136298409
-0.053743873921696
-0.053818417635031
-0.053942217733698
-0.0540655464820335
-0.0541172098091636
-0.0540365468916085
-0.0538086522688782
-0.0534910666501062
-0.0532207185055307
-0.0531944811166496
-0.0536243347141384
-0.0546766389351712
-0.0564115965795667
-0.058741156484886
-0.061420385699815
-0.0640794837622712
-0.066293003529992
-0.0676721197956094
-0.0679580981961097
-0.0670931300984835
-0.0652491713300583
-0.0628049518333476
-0.0602735174268078
-0.0581949959609546
-0.0570188251529268
-0.0570032869585185
-0.0581562017766413
-0.0602304801715988
-0.0627756376599548
-0.0652347284995553
-0.0670669082539593
-0.0678694282250132
-0.0674704070621743
-0.0659672726681181
-0.0636967852022719
-0.0611398167929334
-0.0587828223771464
-0.0569715876158572
-0.055796415008983
-0.0550406135990127
-0.0542090019583113
-0.0526346539741699
-0.0496445261067429
-0.0447511272254129
-0.0378299502792573
-0.0292414858919982
-0.0198621563981092
-0.0110008603518018
-0.00419767829286406
-0.000927482928379222
-0.00225898073319328
-0.00854156467525969
-0.0192006229653136
-0.0327113993456735
-0.0467910640518103
-0.0588024814045524
-0.0663105186657762
-0.0676849761471725
-0.0626153319640347
-0.0523999755309469
-0.03989966443159
-0.0290993539908695
-0.0242977064473344
-0.0290297416389042
-0.0449124875976556
-0.0706692704236859
-0.101614451198248
-0.129845792877412
-0.145283065929604
-0.137512995681569
-0.0981794564559181
-0.0234447863223973
0.0840897332573776
0.2146130639051
0.351909141706345
0.47581263558458
0.565947213794829
0.60596338310278
0.587247342630048
0.511104429798117
0.388762556182873
0.239117036362116
0.0847725238067787
-0.0525878863811686
-0.156329316728701
-0.217528753956173
-0.235696640091153
-0.217632748676411
-0.17494416663574
-0.1209910219766
-0.0680273757333557
-0.0251181463001881
0.00287566587473349
0.0152488730000742
0.0145791942913175
0.00539489693055269
-0.00723449701435231
-0.0188726549090835
-0.0264668137212227
-0.0286206886112079
-0.0254525406844305
-0.0181754476965513
-0.0085618978567176
0.00156359595624544
0.010706726654442
0.0179189666569172
0.0228528551219574
0.0256936133225979
0.0270151227151521
0.0276059274174733
0.0283013243052528
0.0298456357637051
0.0327972116813486
0.0374791036806892
0.0439713175275957
0.0521360648175399
0.0616653947192807
0.0721408371701155
0.0830964523480691
0.0940785878476086
0.104696788916831
0.11466093853533
0.123800658388827
0.132064818881287
0.139501710702403
0.146223606401108
0.152362201906956
0.15802274173155
0.163244071420762
0.167969896755312
0.172033995897029
0.175159795737322
0.176973441910271
0.177029963450394
0.17485374038145
0.169994763502423
0.162098560731821
0.150980321032476
0.136686500461764
0.119525206667951
0.100052686625487
0.0790154634843866
0.0572606379187139
0.0356348825476904
0.0148930963504041
-0.00436800672040679
-0.021744251868864
-0.0370266419317332
-0.0501780822272117
-0.0612933039541502
-0.0705522310820365
-0.0781759966497056
-0.0843920881502516
-0.0894115754198133
-0.0934178680324262
-0.0965636629146885
-0.0989714994676748
-0.100734281020698
-0.101914887761484
-0.102546981111359
-0.102640340432479
-0.102192679960741
-0.101206646257572
-0.0997075427898736
-0.0977561002210081
-0.0954517827802246
-0.0929246870901631
-0.0903168711114161
-0.0877568146036958
-0.0853338817324277
-0.0830819506495706
-0.0809802842437614
-0.0789739543518037
-0.0770076833367848
-0.075060105317413
-0.073163857717343
-0.07140161786013
-0.0698773504980606
-0.0686719510445113
-0.0677992625881515
-0.0671795954917998
-0.0666430098023206
-0.0659651968748983
-0.0649275602081649
-0.0633837774129564
-0.0613115998448188
-0.0588328891098942
-0.0561952170890758
-0.0537201456606313
-0.0517319786718042
-0.0504843777777899
-0.0501015002634439
-0.0505469147936236
-0.0516283915187588
-0.0530396858309031
-0.0544317529633785
-0.0554970730804453
-0.0560451466311301
-0.0560478036705423
-0.0556404849094531
-0.0550778603102905
-0.0546551824375697
-0.0546168337037834
-0.0550777629099597
-0.0559804426549521
-0.0571002023377039
-0.0580982066266723
-0.058608149386625
-0.0583337187898365
-0.0571314317025646
-0.0550580903047664
-0.0523722099970114
-0.0494905609260218
-0.0469103872335923
-0.0451128502553315
-0.0444643262302762
-0.045131090068839
-0.0470209552371594
-0.0497631017066357
-0.0527343935366713
-0.055136169844102
-0.0561188256846615
-0.0549421623395506
-0.0511484493116762
-0.0447148300443176
-0.0361458209168757
-0.0264694245930459
-0.0171147866902708
-0.00967481869843989
-0.00558852242597344
-0.00580604924483544
-0.0105154800375645
-0.0190074650865607
-0.0297309081201491
-0.0405541650435419
-0.0492003104112215
-0.053781681695443
-0.0533263534158091
-0.0481732834847534
-0.0401179823792945
-0.0322198945375413
-0.0282371579311177
-0.0317309333822066
-0.0449714178831782
-0.067865140965405
-0.0971846316279067
-0.126389159041678
-0.146255526840561
-0.146383208727734
-0.117416031755028
-0.0535794964478187
0.0450612241301284
0.171285000929371
0.310885546267529
0.444564533478058
0.551337097015155
0.612777945032837
0.617105504878534
0.562031266481797
0.455553045317925
0.314400420380431
0.160495049772905
0.0163497406618733
-0.0993989464347665
-0.175236003410911
-0.208125009374278
-0.202878282890074
-0.169958417394488
-0.12245271359257
-0.0730373943991846
-0.0316044284861896
-0.00394228384346601
0.00845683177062011
0.00765947700629039
-0.0020157467804551
-0.0154672994235472
-0.0280911437444405
-0.036642433162628
-0.0395921889627422
-0.037022208939609
-0.0301916025342376
-0.0209489610972109
-0.011158030485743
-0.00226351237195218
0.00493646317914391
0.0103067029774705
0.0142258252199811
0.0173470698652517
0.0203509714615757
0.0237571185864994
0.0278326121842852
0.0325999445514748
0.0379174716309303
0.0435895139043258
0.0494631803938642
0.0554824034894443
0.0616897089414069
0.0681852861972919
0.0750651960626372
0.0823637748022504
0.090020427387409
0.0978807680959502
0.10572975376054
0.11334362283302
0.120541541682234
0.127218845394568
0.133350824320525
0.13896589909115
0.144096032344496
0.148717919957733
0.152700210005761
0.155770380396066
0.157511212674394
0.157391910425771
0.154832914478498
0.149296409926721
0.140387555813865
0.127946856949237
0.112113852024332
0.093346916964048
0.0723923944292496
0.0502064616697807
0.0278427840181529
0.00632578586315469
-0.0134682716090189
-0.0309026126982822
-0.0456301426414018
-0.0575974494327006
-0.0670061285221381
-0.0742417433557699
-0.0797847502872769
-0.0841191001718728
-0.0876535444542096
-0.0906681054441254
-0.0932936825453947
-0.0955267325373289
-0.0972741993755121
-0.0984173307792105
-0.0988780270975034
-0.0986698237970214
-0.0979190319431529
-0.0968496368790207
-0.095735956485222
-0.0948366153025324
-0.0943291703787813
-0.0942646463995685
-0.0945549371911655
-0.0949956880376527
-0.0953169319302065
-0.0952470451220478
-0.094573868447356
-0.0931892850605362
-0.091108490130132
-0.0884611691898854
-0.0854577938232617
-0.0823394657490169
-0.0793233413093703
-0.0765566738914277
-0.0740904063364876
-0.0718786235909226
-0.0698043670978134
-0.0677262569298586
-0.0655344743238792
-0.0632000888964374
-0.0608010457239604
-0.0585136579826781
-0.0565695805049326
-0.055190823037536
-0.0545238533365307
-0.0545943221883433
-0.0552960399043379
-0.0564149816768997
-0.0576771503394211
-0.0588033888906203
-0.0595563705333925
-0.0597722049258075
-0.0593764174956659
-0.058387716104324
-0.0569123113821804
-0.055128784108401
-0.0532618708708676
-0.0515453194019699
-0.0501788295325889
-0.0492892150554463
-0.0489078268072146
-0.0489730932083538
-0.0493593296729757
-0.0499232315353868
-0.0505513235259774
-0.0511888941819913
-0.0518358571651144
-0.0525066251373034
-0.0531654623410072
-0.0536607870264952
-0.0536872877632775
-0.0528010881773861
-0.0505003887346505
-0.0463644844470606
-0.0402226259388864
-0.0323069821146299
-0.0233370613078717
-0.0144909763686181
-0.00724306594094695
-0.00308325719639445
-0.00317124476738813
-0.00800585748576783
-0.0171974609003228
-0.0294158974686597
-0.0425521510826146
-0.0540869750016875
-0.0616134375939227
-0.0634203644764275
-0.0590157658983401
-0.0494589832389504
-0.0373833786447511
-0.0266326221376189
-0.021503264858796
-0.0256775295877353
-0.0410282265535741
-0.0665601185820671
-0.0977921307556326
-0.126857351857592
-0.143487945282079
-0.136864184607441
-0.0980703344224987
-0.0226699654609839
0.0872384550235591
0.222128262036605
0.365770315212128
0.497672546091089
0.596867253588139
0.646248508432953
0.636404378904977
0.567917602413277
0.451455919914807
0.305560843787519
0.152690870340811
0.0145603200915815
-0.0920317828935909
-0.15790700751122
-0.182257918834609
-0.171520195264771
-0.13690238463376
-0.0913480653419321
-0.0467015162910013
-0.0116542519331443
0.00924259721095749
0.0155114253768766
0.00986671236155894
-0.00311730313545427
-0.018410217776445
-0.0316909705247419
-0.0400870922700311
-0.0424332492471084
-0.0391085123804233
-0.0315859552604613
-0.0218569908269562
-0.0118816728520623
-0.00317640938241023
0.00340405107302291
0.0076888230284568
0.0100596463738947
0.0112333574852127
0.0120290029375182
0.0131767071615794
0.0152008233705689
0.0183828031250242
0.0227872020024612
0.028322372052452
0.0348071534453908
0.0420240345110528
0.0497525549103606
0.0577877262448163
0.0659522970840193
0.0741085631408654
0.0821690413690577
0.0901006239243801
0.097916541702394
0.105654244086954
0.113342771600224
0.120967468591822
0.128440830448186
0.13558561437045
0.142131871826958
0.147726050025805
0.151949557868776
0.154345827502087
0.15445675575892
0.151869044930457
0.146267408345435
0.137486328883477
0.125548383983247
0.110678159767269
0.093287043251117
0.0739331279208921
0.0532678220170274
0.0319829827735084
0.010768642665389
-0.00971610960772699
-0.0288636596711162
-0.0461375422258444
-0.0610971999755801
-0.0734287199525405
-0.0829768261830115
-0.0897692883929571
-0.0940235421362313
-0.0961275269007509
-0.0965925374653433
-0.0959837674700345
-0.0948415211407312
-0.0936100836491573
-0.0925903186375718
-0.0919261200359923
-0.0916255535136612
-0.0916078916961587
-0.0917608995848426
-0.0919906234054701
-0.0922490600950235
-0.0925327709261358
-0.0928558725854369
-0.0932105514601248
-0.0935333761493071
-0.093693769958942
-0.0935125475513092
-0.0928066084621362
-0.091445222755102
-0.0893981144559351
-0.0867580892446811
-0.0837302035222517
-0.0805911789481658
-0.0776319449627762
-0.0750999267982032
-0.0731559167365749
-0.071854683594149
-0.0711510104934309
-0.0709258640507056
-0.0710229045190416
-0.071284552395886
-0.0715789842499026
-0.0718135129323924
-0.0719343529083174
-0.0719164240166944
-0.0717486912716651
-0.0714204743299549
-0.0709128020874132
-0.0701969765098305
-0.0692405483515981
-0.068019227250611
-0.0665319605017678
-0.0648152706610159
-0.0629518520697737
-0.0610683049011241
-0.0593192264755651
-0.0578598549753486
-0.0568148386176488
-0.0562533066380216
-0.0561786206721173
-0.0565358180097525
-0.0572331024424618
-0.058168256469883
-0.059248541696654
-0.0603945415071391
-0.0615240194080773
-0.0625195062311395
-0.0631908735822389
-0.0632494906897775
-0.0623115640374047
-0.059943375860611
-0.0557505823760116
-0.0494998052785387
-0.0412469531305476
-0.0314368653512045
-0.0209367361154703
-0.0109741964108028
-0.00297023448004566
0.00171603158302506
0.00208598810425953
-0.0022216123026135
-0.0107467319232348
-0.0221764617030701
-0.0344977201052352
-0.0453295464233874
-0.052392002003683
-0.0540347847279938
-0.0497235480429113
-0.0403697919099074
-0.0283958604627304
-0.0174547835399128
-0.0117783718738892
-0.0152046583093758
-0.0300284972996272
-0.055908362309951
-0.0891214382823675
-0.122459043717355
-0.145973181413256
-0.148617769336472
-0.120596124206441
-0.0559805161590502
0.0450160669371999
0.174784271305377
0.31860650153462
0.456687047697742
0.567670093274323
0.632938063598514
0.640673775468453
0.588627336150541
0.484803453130232
0.345823478175167
0.193361929153083
0.0495945352056003
-0.0671633363913848
-0.145577741424375
-0.182556274246973
-0.182584701927165
-0.155572498195319
-0.113936958993239
-0.069709887954518
-0.0322975652532534
-0.00724849714110758
0.00391855677384218
0.00302152255095496
-0.0060009532600394
-0.0184506762208874
-0.0300557282740295
-0.0377744678408247
-0.0401422470595098
-0.037199970307879
-0.0301212785341162
-0.0206892005772356
-0.0107679039466569
-0.00188182454732917
0.00503346923249624
0.00969434796265735
0.0123744165187335
0.0137091044974174
0.0144679513216126
0.0153565552818736
0.0168896343547982
0.019349077918259
0.0228146340895357
0.0272372405937839
0.0325200135751417
0.0385790297491393
0.0453704126880402
0.0528851153271292
0.0611228852491192
0.0700602346628873
0.0796247946093271
0.0896828330929313
0.100040985717215
0.110459543577192
0.120673228987898
0.130414960789878
0.139437488129409
0.147527166550901
0.154504739218145
0.160210675966847
0.164477375203718
0.167096254255796
0.167792351677042
0.166220113919343
0.161990197615021
0.154729111460168
0.144163625840365
0.130212738631268
0.113064153078414
0.0932121076466935
0.0714403688405806
0.0487471758097649
0.026224139821988
0.00491355674770849
-0.0143258536307643
-0.0309177362877523
-0.044614250479319
-0.0554851687876808
-0.0638570444859989
-0.0702178036811615
-0.0751069256184381
-0.0790127963583333
-0.0822962930807824
-0.0851530976270599
-0.0876181395455867
-0.0896064167860908
-0.0909773469482249
-0.0916059416177811
-0.0914439146473204
-0.0905570835699126
-0.0891311442483288
-0.0874448883946961
-0.0858171981629762
-0.0845406153480916
-0.0838182834173462
-0.0837207882727164
-0.0841742029446823
-0.0849817808559402
-0.0858721767242698
-0.0865601569638897
-0.0868038198971731
-0.0864455557620273
-0.0854303570358965
-0.0838018818325969
-0.0816818823053871
-0.079241316755788
-0.0766713044958763
-0.074159284049965
-0.0718716330385131
-0.0699406857935609
-0.0684530579663766
-0.0674376367277921
-0.0668547299482534
-0.0665913174323074
-0.0664691213109434
-0.0662703464319417
-0.0657801768599943
-0.0648378342503572
-0.0633828803484495
-0.0614829546090537
-0.059333358007747
-0.0572261734381693
-0.0554946793378491
-0.0544453877209055
-0.0542933240783255
-0.0551154058584967
-0.0568323611877051
-0.0592227434300988
-0.061964989890907
-0.0646973382111493
-0.0670826199305385
-0.068865791709998
-0.0699149907828086
-0.0702399432509802
-0.069984063741361
-0.0693894574865202
-0.0687383897743341
-0.0682805356286817
-0.068160703064606
-0.0683640539129201
-0.0686932711852434
-0.068785222188277
-0.0681662483613677
-0.0663381518101101
-0.0628822849577159
-0.0575663049835386
-0.0504364472415974
-0.0418776353195049
-0.0326248783369584
-0.0237129402196957
-0.0163582525300847
-0.0117783264553298
-0.0109687416797078
-0.0144729395731106
-0.022190894644476
-0.0332753948682389
-0.0461573384049646
-0.0587242944794455
-0.0686509597391741
-0.0738484879692847
-0.0729658403523214
-0.0658461354440216
-0.0538223029912462
-0.0397378310202526
-0.0276073080917854
-0.0218911310890503
-0.0264460788641717
-0.0433163248955166
-0.0716251006061357
-0.106884337758955
-0.141026180595803
-0.163355146561887
-0.162424129796848
-0.128582304064522
-0.0566893318713946
0.0516807391342138
0.187232345425316
0.333628482857775
0.469963430726222
0.574646668057239
0.629867009381163
0.625544793261932
0.561718728656669
0.448678333523282
0.304756339843751
0.152352386880209
0.0132462882133352
-0.0955924861056378
-0.164719554011568
-0.19297015641028
-0.18634013381902
-0.155540167999068
-0.113004997945947
-0.0701277376978348
-0.035285937193621
-0.0129255758300709
-0.00367012805623324
-0.00519794914550702
-0.0135184280669514
-0.0242753084443624
-0.0337882323318627
-0.0396718572391043
-0.0410053177673094
-0.0381310443984317
-0.0322233397646117
-0.024781652360688
-0.0171806940978869
-0.0103642763370776
-0.00471723298835247
-0.000102704561144961
0.00398124642349454
0.00818765302901235
0.0131104931935029
0.0191259796677431
0.0263123868824054
0.03445422628947
0.043118802978053
0.0517805043321172
0.0599608231882386
0.0673506749199267
0.0738867796203064
0.0797652022147442
0.0853901621189778
0.0912715288841839
0.0978965912416731
0.105607770812625
0.114516067224066
0.124470245961822
0.135086505066866
0.145826714785577
0.156100151817933
0.165358246100225
0.173156374017253
0.179169728542544
0.183166908959108
0.18495903626149
0.184349318441143
0.181106276551585
0.17497441574434
0.165722552738756
0.153217051133291
0.13749880794069
0.118840802407358
0.0977674030193902
0.0750264213545621
0.051517801817884
0.0281948770337901
0.00596087063082035
-0.0144176420854281
-0.0323663001886306
-0.0475243301582729
-0.0597381095695219
-0.0690383864849466
-0.0756118981742665
-0.0797729607754225
-0.0819344319153044
-0.0825739835727701
-0.0821927254407344
-0.0812679552885192
-0.0802070729971181
-0.0793120103889863
-0.0787612435263383
-0.0786109188484823
-0.0788112545645109
-0.0792320781528542
-0.0796925107089863
-0.0799924408441913
-0.0799449909136834
-0.0794082578151387
-0.0783118201707836
-0.076671289053375
-0.0745852741606355
-0.0722142008206242
-0.0697469516434226
-0.0673653943272494
-0.065216207069537
-0.063394857577317
-0.0619410665518423
-0.0608416469595438
-0.06003684954244
-0.0594294716798619
-0.058899054761187
-0.0583233934817412
-0.0576056408002587
-0.0567000357672945
-0.0556265164001849
-0.0544666400113136
-0.0533399885573876
-0.0523686552905106
-0.0516432072930619
-0.0512032204554981
-0.0510387258546929
-0.0511090929368335
-0.0513681945724749
-0.0517829263119816
-0.0523367057516248
-0.0530178154654477
-0.0538002951905868
-0.0546288705550639
-0.0554174795550726
-0.0560644928172298
-0.056479999130101
-0.0566150609506535
-0.0564817589279879
-0.0561563241828109
-0.0557641027644917
-0.0554516652480539
-0.0553552088412285
-0.0555742081701369
-0.0561559284772659
-0.057091990433436
-0.0583244895720144
-0.059757195932062
-0.0612674073061823
-0.0627159211024061
-0.0639555465391437
-0.0648412804415852
-0.0652462059668852
-0.0650851611638357
-0.0643431631140789
-0.0630992570256207
-0.0615324477347392
-0.0598981382212166
-0.0584718905076008
-0.0574695859722577
-0.0569643348245608
-0.0568262490180945
-0.0567089462707868
-0.0560965942497084
-0.0544102492157602
-0.0511564293368525
-0.0460880101152304
-0.0393398422293992
-0.0315004434126014
-0.0235884539050721
-0.0169194937153416
-0.0128740554394696
-0.0126044800154418
-0.0167406991526737
-0.0251631263302928
-0.0369039785318915
-0.0502175529674863
-0.0628305257497361
-0.0723499213387562
-0.0767723375362496
-0.0750065626415373
-0.067298127641386
-0.0554361645598183
-0.042638269834467
-0.0330535509269492
-0.030897840695545
-0.0393302602520761
-0.0592794426769408
-0.0885049105067797
-0.121204438162662
-0.148425537728293
-0.159396216157425
-0.143669218894759
-0.0937186989633386
-0.00740988852682111
0.110337579934863
0.247290087244271
0.385361786733347
0.503687041574303
0.582726089641011
0.608463625697666
0.575632029053633
0.489070804901129
0.362800054204902
0.217011715276744
0.0737661088177363
-0.0474794155075702
-0.133401232602007
-0.178638800603119
-0.185691042293635
-0.163168746562485
-0.123052141356691
-0.0777321623057352
-0.0375242792315075
-0.00910380088641736
0.00498629529494073
0.0058740959206765
-0.00275304154028009
-0.0160337522191794
-0.0292409127432208
-0.0387587528493519
-0.0426016606179235
-0.0404700171372182
-0.0334329708668527
-0.0233840061583363
-0.012431632061295
-0.00236976009023237
0.00567082452094689
0.0113457854153856
0.0150097138906219
0.0174788173592731
0.0197298002554071
0.0226204839167352
0.0266960484815045
0.0321115419306847
0.038667246970732
0.0459269669643865
0.0533749367174035
0.060565879028356
0.0672325445069034
0.073331616246422
0.0790271942261058
0.0846266439516086
0.0904928564467448
0.0969582371411148
0.104259952309019
0.112506124819372
0.121672148471949
0.131617668433332
0.142110088095223
0.15284127724672
0.163430467360259
0.173415639349681
0.182244011306564
0.189276060694438
0.193815370157786
0.195169117513413
0.19273372088554
0.186090615407082
0.175091712911231
0.159914386208507
0.141071433824958
0.119370814895617
0.0958307728502545
0.071565576380263
0.0476628561861769
0.0250739663775054
0.00453432770807068
-0.0134769338438798
-0.0287372933252793
-0.0412476973001206
-0.0511774721863473
-0.0588007270642121
-0.0644370870554163
-0.0684066150738094
-0.0710037571097136
-0.0724891892663732
-0.0730935426665668
-0.0730249141617924
-0.0724733125971177
-0.0716089302064183
-0.0705758580818822
-0.0694865968904991
-0.0684232908200852
-0.0674480104516754
-0.0666181944088448
-0.0659983195331202
-0.0656585894706815
-0.0656568283602861
-0.0660084621262453
-0.0666570800437003
-0.0674604550327002
-0.0682023985223821
-0.0686313061300297
-0.0685160617844924
-0.0677033614269082
-0.0661596370982408
-0.0639853859806284
-0.0613979271421895
-0.0586875200901278
-0.0561584729816601
-0.0540697025471104
-0.0525882515290536
-0.0517654173593845
-0.0515392436836407
-0.0517603112024235
-0.0522320485349472
-0.0527542641769149
-0.0531598446226327
-0.0533382603019216
-0.0532437811098787
-0.0528898344102277
-0.0523331124504889
-0.0516517766460484
-0.05092208671786
-0.0501979795142139
-0.0494985497064918
-0.0488076942441681
-0.0480871567146807
-0.0472995143752344
-0.0464336334223594
-0.0455238722823107
-0.0446562059327558
-0.0439582674728414
-0.0435744452879456
-0.0436307291828471
-0.0441969766719957
-0.045256626243954
-0.0466943557551167
-0.0483087531197714
-0.0498493058234491
-0.0510678580830907
-0.0517690381373074
-0.0518452060790273
-0.0512882901435814
-0.0501794848998785
-0.0486640865280423
-0.0469207128671712
-0.0451322704484692
-0.0434623983048878
-0.0420380341471912
-0.0409374628952708
-0.0401836557682556
-0.0397440084034022
-0.039538500536892
-0.03945756884058
-0.0393881061556077
-0.0392420918828085
-0.0389797683024856
-0.0386197981506492
-0.0382323669156469
-0.0379162240850229
-0.0377655644069087
-0.0378361212980245
-0.0381207211821663
-0.0385421906087732
-0.0389664527091807
-0.0392325149056313
-0.039190788983228
-0.0387385199342017
-0.0378421360184156
-0.0365408769167522
-0.0349322385286106
-0.0331450016207612
-0.0313083037254511
-0.0295254150253409
-0.0278593009497357
-0.0263340707444344
-0.0249521675661422
-0.0237221851914861
-0.0226876480927112
-0.0219445585229515
-0.0216365847814835
-0.0219221309397869
-0.0229161335219725
-0.0246187366630291
-0.0268503438451726
-0.0292160842141607
-0.031121088812057
-0.0318498256217811
-0.030707734593127
-0.0272037176763144
-0.0212328517439261
-0.0132069517947156
-0.00408279030816217
0.00474295480014677
0.0116694459028779
0.0152172491758365
0.0143725497800471
0.00886703239244407
-0.000679212695509685
-0.0127956746807839
-0.0253859981430828
-0.0361073828009849
-0.0428440755850394
-0.0441964080911486
-0.0398982630817
-0.031073981123563
-0.0202515751845638
-0.0110682551770966
-0.00764368521303104
-0.013659615521844
-0.031267057752004
-0.0600289839752588
-0.0961726895592378
-0.132441259226952
-0.158771139031986
-0.163870445433388
-0.137544422942233
-0.0733579551075396
0.0289829687418551
0.162222965345386
0.311692996519049
0.457238258992298
0.57672555599372
0.650441451050019
0.665351455556441
0.618115755625992
0.516011225890268
0.375448853466275
0.218444408705834
0.0679749665518068
-0.0565674006385774
-0.14271978791314
-0.186413734296554
-0.191458616919198
-0.167458205456089
-0.126893018018755
-0.0821675571400497
-0.0432723874539373
-0.0164344363840997
-0.00382552072029238
-0.00415027086244431
-0.0137858490623583
-0.0281059327442512
-0.0426716509514323
-0.0540786776659377
-0.0603749484519667
-0.0610753683983423
-0.0568775280720908
-0.0492176490841856
-0.0398015256402804
-0.0302120329335769
-0.0216483570860967
-0.0148077551331878
-0.00988865727309849
-0.0066776094177993
-0.00467988298919984
-0.00325994103899672
-0.00176813653836982
0.000360362361835241
0.0035414595878166
0.00801487609500547
0.013851015939812
0.0209841859021191
0.0292604198272991
0.0384867223872909
0.0484700745126398
0.0590386333198989
0.070043540394985
0.0813463291329641
0.0928017813352932
0.10424679957594
0.115501658617015
0.126382675669558
0.136718517871656
0.146359586388695
0.155172646042862
0.163019596860753
0.169726545997504
0.175054017619439
0.178679974086145
0.180204585859747
0.179180364073544
0.175165024499066
0.16778941712305
0.156830255834771
0.142276544315856
0.124378125437885
0.103664703026643
0.0809257863592782
0.057147967566782
0.0334153260858478
0.0107887306947933
-0.00981347545202745
-0.0277104012990655
-0.042512343904679
-0.0541272555391489
-0.0627252049429422
-0.0686742870287738
-0.0724643933554074
-0.0746331227608122
-0.0757028560015573
-0.0761324453569942
-0.0762833431995011
-0.0763988857605265
-0.0765958697003724
-0.0768682961619058
-0.077103702634601
-0.077112610847542
-0.0766706414186953
-0.07557018100317
-0.073674543495466
-0.0709639283651126
-0.0675612084681219
-0.0637282995308274
-0.0598307620088893
-0.0562773214247979
-0.0534483920807202
-0.0516301453551242
-0.0509675777661063
-0.0514436429929982
-0.0528849475887057
-0.0549898210648478
-0.0573721652640593
-0.0596137202535004
-0.0613174693207427
-0.0621555865526575
-0.0619067866517882
-0.0604799932123553
-0.0579230180812878
-0.0544157726363063
-0.0502480257443195
-0.0457832269453209
-0.0414127029721856
-0.0375071324376442
-0.034372835754482
-0.0322187947718937
-0.0311376252482053
-0.0311012754773346
-0.031970582360801
-0.0335169173079252
-0.0354536018141544
-0.0374740443085481
-0.0392923777336194
-0.0406810542687393
-0.0414991014286038
-0.0417053907553555
-0.0413539379856263
-0.0405727374823463
-0.0395322677871336
-0.038412092851582
-0.0373727069273617
-0.0365363550743485
-0.035977655197241
-0.03572357269432
-0.0357615525059644
-0.036053123414701
-0.0365485371843541
-0.0371976443018799
-0.0379540770066726
-0.0387730577905708
-0.0396060341294357
-0.040396407948885
-0.04107946221806
-0.04158705000277
-0.0418553493880402
-0.0418331912995335
-0.041489044443741
-0.0408158503916028
-0.0398339317710942
-0.0385927809928721
-0.0371720817416314
-0.0356805379711509
-0.0342491371159495
-0.0330155940044505
-0.0321001185068465
-0.0315779309320827
-0.0314578908516539
-0.0316764074186949
-0.0321109053461495
-0.0326096441090738
-0.0330283360656649
-0.0332618925712977
-0.0332623630382751
-0.0330398548670287
-0.0326492596950895
-0.0321698707914791
-0.0316860946601642
-0.0312748698757429
-0.03100021230707
-0.0309106530461749
-0.0310346189290407
-0.0313727200424887
-0.0318913721778156
-0.0325245842071216
-0.0331876163485309
-0.033799235204339
-0.0343031252630021
-0.0346780226323525
-0.0349312448200604
-0.0350784167044423
-0.0351186715775808
-0.0350164797030303
-0.0346986020117888
-0.0340694161854659
-0.0330420349063635
-0.0315776381520431
-0.0297221834907404
-0.0276286112290644
-0.0255539367460062
-0.0238243810432936
-0.0227682690847441
-0.0226255947438183
-0.023453200157222
-0.0250522584673926
-0.0269465060996411
-0.0284326731733836
-0.0287084183713697
-0.0270608229326896
-0.0230762688302427
-0.0168176393529817
-0.0089133225237546
-0.000517376876892581
0.00687025359540593
0.0116973991295595
0.012707291764478
0.00926081966215069
0.00155508587925072
-0.00931999705713389
-0.0215134144787349
-0.0327241648498835
-0.0406505066114969
-0.0435089102174918
-0.0405325692664114
-0.0323443821932404
-0.0210961380949558
-0.0102821327473243
-0.00417857749510745
-0.00693142470191984
-0.0214075891641115
-0.0480214623099879
-0.0838248619154088
-0.122173638175021
-0.153229935906133
-0.165411544433982
-0.147671195682457
-0.0922246894963061
0.00287826918624549
0.132047895694563
0.281932060004469
0.433003579331089
0.562834910472083
0.650449855514668
0.680761591495226
0.647972690083627
0.557004843650774
0.422521213465592
0.265765343745768
0.110050794879314
-0.0239173775823024
-0.121737486099867
-0.177239961723987
-0.192418739161314
-0.175669411558086
-0.139003535063652
-0.0950351956097173
-0.0544400517059701
-0.0243408863497196
-0.00777145007267904
-0.00409820167929348
-0.0100956291742892
-0.02129758723107
-0.0332748026557217
-0.0425865580871493
-0.0472836542908084
-0.0469640613857391
-0.0424765403928173
-0.0354189269540777
-0.027587124343567
-0.0205066026202907
-0.0151323066098657
-0.0117481957786486
-0.0100465741046454
-0.00933017819013906
-0.00876276942147147
-0.00759748472169985
-0.0053321943670437
-0.00176983210641822
0.00300987262604366
0.00874011030513577
0.0150819152444192
0.0217303156815179
0.0284878947545585
0.0352952703876406
0.0422203111484816
0.0494168690988267
0.0570688601315813
0.065336668156405
0.0743198843338281
0.0840435216515843
0.0944658081807536
0.105497610005317
0.117019504053708
0.128884001283361
0.140896987218544
0.152782004386731
0.164140197447379
0.174423985253859
0.182941594496318
0.188902630506067
0.191503953676577
0.190043262628157
0.184038226830116
0.173324802788943
0.158111302526018
0.138974390267012
0.116796728378395
0.092659541189592
0.0677131055369785
0.0430514840193011
0.0196139837772661
-0.00187366176701072
-0.0209172703501992
-0.0372405565791869
-0.0507545645830693
-0.0615242523427179
-0.0697406429224318
-0.0756994055975927
-0.0797806509164908
-0.0824222715394684
-0.0840809314496479
-0.085180230692954
-0.0860529939261106
-0.0868912288271515
-0.087719881268573
-0.0884071150296181
-0.0887148366482984
-0.0883810900320983
-0.0872145070755795
-0.0851742501691164
-0.0824100349441397
-0.0792468142090047
-0.0761151289443194
-0.0734456724481256
-0.0715590124875699
-0.0705838922702884
-0.0704286696177135
-0.070813100824339
-0.0713482315596541
-0.0716379211027586
-0.0713712867074343
-0.0703815069545896
-0.0686595815838166
-0.0663265823434128
-0.0635794960785114
-0.0606305882389613
-0.0576579178521931
-0.054777587096567
-0.0520399407761299
-0.0494450300487122
-0.0469687545268779
-0.0445904932809514
-0.0423148303516652
-0.0401825934310692
-0.0382687764708513
-0.0366671686366455
-0.0354643779055003
-0.0347093925904322
-0.0343877059254794
-0.0344097082091225
-0.0346203074841041
-0.0348305223505629
-0.0348638777234891
-0.0346041990844145
-0.0340299661200135
-0.0332244092957456
-0.0323578993786681
-0.0316468863837198
-0.0312996337007288
-0.0314622856336394
-0.0321787955692151
-0.033374712400321
-0.0348685716878043
-0.0364075293173983
-0.0377180770069342
-0.038559790540373
-0.0387705781484478
-0.0382950837875
-0.0371922763821278
-0.0356225158118859
-0.0338178976008116
-0.0320421225789382
-0.0305471236025372
-0.0295331046846376
-0.0291171362876442
-0.0293139162024968
-0.0300310884298372
-0.0310802920150252
-0.0322035310952963
-0.033112460963798
-0.033535873950577
-0.0332683256546608
-0.0322111616340557
-0.03039707861693
-0.0279912513086924
-0.0252658504429473
-0.0225501233844927
-0.0201645056628535
-0.0183529762759127
-0.0172306085904528
-0.0167609345584596
-0.0167702536106759
-0.0169956036635474
-0.0171532725579146
-0.017008870764656
-0.0164301982950252
-0.0154102240807913
-0.0140569241276258
-0.0125559999689489
-0.0111189647498002
-0.00993159872342752
-0.00911623416581144
-0.00871630331685255
-0.00870448799760817
-0.00900879274339738
-0.00954605388128171
-0.0102511527100165
-0.0110927589542991
-0.0120717766846333
-0.0132047369950083
-0.0144989891430713
-0.0159285021099546
-0.017418452912354
-0.0188441168689365
-0.0200455405777646
-0.0208550976574182
-0.0211317030278856
-0.02079411325889
-0.0198461584596169
-0.0183881495500445
-0.0166107014885235
-0.0147699437256046
-0.0131466015075427
-0.0119953498714938
-0.0114943964733357
-0.0117072076850596
-0.012567153020925
-0.0138908494205444
-0.0154182076092484
-0.0168693100856045
-0.0180031755282298
-0.0186629714063549
-0.0187965428881384
-0.018448879565558
-0.0177316836809151
-0.0167815233712368
-0.0157202038662821
-0.0146287958942719
-0.0135413420499593
-0.0124572460338387
-0.011364613637304
-0.0102624069604894
-0.00916894817902265
-0.00810884649640932
-0.00707914618616423
-0.00600602594127561
-0.00471182654907
-0.00291435352328038
-0.000273898888275623
0.00351083239697889
0.00857476890583623
0.0147597480546622
0.0215313625326733
0.0279790064898362
0.0329225399032496
0.0351220992898548
0.0335572398491534
0.0277167865705536
0.0178286728256257
0.00496284406458119
-0.00904072858444198
-0.0218359819334896
-0.0310052245487964
-0.0346017188834625
-0.0317008006676197
-0.0228347082500529
-0.0101817236827305
0.00259684773608599
0.0109254173279618
0.0102622180526199
-0.00269718262793487
-0.0287833289473885
-0.0653802269707101
-0.106035319451765
-0.140914105552539
-0.158214135414744
-0.146427201779086
-0.0970771700467547
-0.00733598913698823
0.118184233916293
0.267083746926247
0.420608368025689
0.556761730854528
0.654515604440346
0.698162317350515
0.680717969352218
0.605464963226269
0.485193918612987
0.339335856003203
0.189759791898501
0.0563475454682102
-0.0465611672606661
-0.112101863959161
-0.140961316434436
-0.139864830150607
-0.119087597313334
-0.0897232774985312
-0.0613552494450247
-0.0405498180615693
-0.0303147379009573
-0.030419586690915
-0.0383083551020594
-0.0502682631987946
-0.0625434123750906
-0.0721699632632656
-0.0774256924057894
-0.0778975891338473
-0.0742526589621631
-0.0678383788136898
-0.060241662736935
-0.0529087970699626
-0.0468877113798179
-0.0427118104643289
-0.0404110743022604
-0.0396155607855114
-0.0397086890022526
-0.0399900502825882
-0.0398163068114821
-0.0387003416241521
-0.0363604209238197
-0.0327211773086765
-0.02787605544778
-0.0220259929562256
-0.015411042464523
-0.00825022127142314
-0.000700561437246655
0.00715979796225875
0.0153259614234232
0.0238442564275299
0.0327819228249621
0.0421958242638952
0.0521052018849468
0.0624708673306808
0.0731810460580659
0.0840428352963954
0.0947782042056055
0.105024429101202
0.114340183219972
0.122219512927231
0.128116121662751
0.131479360583666
0.131801016830334
0.12866898998514
0.121821332668667
0.111192724840881
0.0969454446026259
0.0794782480355999
0.0594093303865149
0.037533490040645
0.0147579085373229
-0.00797544327314514
-0.0297704929653389
-0.0498499621904684
-0.0676109758351507
-0.0826571953183016
-0.0948054951639144
-0.10406896729052
-0.110620843664608
-0.114746155763307
-0.116789724426571
-0.11710962219866
-0.116043651822846
-0.113892607895233
-0.110919139509909
-0.107356480978134
-0.103418813507389
-0.0993056626726938
-0.0951963477587764
-0.0912355628983322
-0.0875156965031969
-0.0840639280629372
-0.0808416179742406
-0.0777599218708168
-0.0747098708905502
-0.0715993813838392
-0.0683860642183089
-0.0650947961110571
-0.0618130914929985
-0.0586644392097895
-0.0557677007764754
-0.0531962450497683
-0.0509510937677005
-0.0489575283698462
-0.0470863735889699
-0.0451927559654014
-0.0431594827108579
-0.0409310715646495
-0.0385280314675136
-0.0360376731114564
-0.0335849046453705
-0.0312918036207785
-0.029237117723512
-0.0274262284407476
-0.0257791252056703
-0.024139543929552
-0.0223037223826986
-0.0200630275129154
-0.0172514006727463
-0.0137866172311318
-0.00969472862422346
-0.00511058289300494
-0.000253586372155702
0.00461506169420228
0.00924207048474023
0.013425347216647
0.0170399664022758
0.0200416387009073
0.0224493931242327
0.0243148561348353
0.025688461942851
0.0265929209386841
0.0270117406106319
0.0268961178448327
0.0261880040170779
0.0248520508441535
0.0229061376529769
0.0204403974354636
0.0176181973162096
0.0146582357366164
0.0118026010327437
0.00927904443943658
0.00726593407471119
0.00586625860911907
0.00509429715079643
0.00487624146447152
0.00506432202279641
0.00546258876509062
0.00586103759595861
0.00607291183165753
0.00596799321231774
0.00549375217042841
0.00467785751104663
0.00361017422504217
0.0024087077305908
0.00117958147755478
-1.63292079769476e-05
-0.00117942688359424
-0.00236539146941628
-0.00366008277587388
-0.00514437653722754
-0.00686044971772006
-0.00878971748166132
-0.0108485552084353
-0.0129025351136488
-0.0147947224893555
-0.0163800538391463
-0.0175566841324402
-0.0182862567904609
-0.0185978466379496
-0.0185745904185733
-0.0183272057800681
-0.0179631857480111
-0.0175623597386205
-0.0171674319082674
-0.0167924359605548
-0.0164447696900488
-0.0161504907640883
-0.0159706339083768
-0.0159996850043992
-0.0163447679204197
-0.0170923540318009
-0.0182749245476944
-0.0198507564409572
-0.0217054637404519
-0.0236757216499903
-0.0255870622780285
-0.0272924658229271
-0.0286987919169627
-0.0297733774054324
-0.0305308792294217
-0.0310076342091664
-0.0312349016371795
-0.0312219603346001
-0.0309554831682716
-0.0304149346477666
-0.0295976209161295
-0.0285435718947631
-0.0273506203469459
-0.0261736380074768
-0.0252074519154482
-0.0246582147431067
-0.0247109522429607
-0.0255009920536852
-0.0270945834386352
-0.029480331523731
-0.0325693002814535
-0.0361991898309557
-0.0401380889991767
-0.0440861089600656
-0.0476775172245234
-0.0504899472449591
-0.0520691516420178
-0.0519763418286225
-0.0498598604715304
-0.0455444860212351
-0.0391222563975828
-0.0310212565902849
-0.0220260941956799
-0.0132279163321333
-0.0058938025659974
-0.00126393845949083
-0.000305931192575939
-0.00347310253423087
-0.0105225747675641
-0.020446806212866
-0.0315583515374911
-0.0417428075544567
-0.0488614282502828
-0.0512469977049819
-0.0482006130340095
-0.0403713265701252
-0.0298945068814606
-0.0201868430971539
-0.015350763524773
-0.0192261703194395
-0.0342308793288726
-0.0602309684306893
-0.093748365860844
-0.127813731097376
-0.152684862711877
-0.15747175694384
-0.132465858254579
-0.0717211973786174
0.0247416237294832
0.149764408584357
0.289402540821149
0.424942653943219
0.536286861974322
0.605985681211015
0.622946491226736
0.584854468646264
0.498645639475815
0.378894512863917
0.24455979767649
0.114973780015922
0.00611378313286406
-0.0719776997063449
-0.116163925366896
-0.129592952697111
-0.119892174733581
-0.0967940793485902
-0.069819554115401
-0.0465019123003872
-0.0314104750683783
-0.0260000223951702
-0.0291275614064502
-0.0379712829061498
-0.0490634043889897
-0.0591939031587829
-0.0660293948915798
-0.0683910663166817
-0.0662222263999068
-0.0603334346540927
-0.0520360975983162
-0.0427682340024263
-0.0337889200057081
-0.0259826389538781
-0.0197818033317614
-0.0151916556535369
-0.0118883506215319
-0.00935639819021938
-0.00703287639210725
-0.00443086823807089
-0.00122246515096485
0.00272834239964528
0.00738166825072667
0.0125753721446238
0.0180981463963538
0.0237619292520704
0.0294569931844094
0.0351802712454626
0.0410356398475908
0.0472113570087866
0.0539430743117439
0.0614706015631476
0.0699942228631756
0.079634051594376
0.0903952312227476
0.102142459348203
0.114587738736329
0.127294221698129
0.139696665814899
0.151136431342716
0.160907158200441
0.168306736249204
0.172691698724582
0.173530890440778
0.170455316430281
0.163300336195337
0.152135530423431
0.137277368916363
0.119280487059213
0.0989049865171394
0.0770599176073844
0.0547269329445461
0.0328722580595664
0.0123583884324026
-0.00613172694497067
-0.0221463916939543
-0.0354848988499278
-0.0461833222435563
-0.054471017360352
-0.0607080156115002
-0.0653163868079981
-0.0687182103666777
-0.0712893140907553
-0.0733326028899834
-0.0750694280068874
-0.0766437750212115
-0.0781329552177254
-0.0795597353863658
-0.0809033693970311
-0.082109409990245
-0.0830994371708861
-0.083781906290588
-0.0840650559173672
-0.0838727784730297
-0.0831638372261487
-0.0819526584918123
-0.0803263800410175
-0.0784500405536229
-0.0765522405588297
-0.0748882438739773
-0.0736851809702608
-0.0730821086258367
-0.0730828414357854
-0.073538774498719
-0.0741713669675511
-0.0746315962886618
-0.0745810941077643
-0.0737718753074568
-0.0721017813590962
-0.0696309541185114
-0.0665574875827099
-0.063162645163295
-0.059743211258793
-0.0565491616732414
-0.0537403803600184
-0.0513693091192452
-0.0493894298691922
-0.0476837610577467
-0.0461039629064446
-0.0445096025155946
-0.0427985725612256
-0.0409231029944958
-0.0388903082536108
-0.0367503879811127
-0.0345781309708645
-0.0324537773812732
-0.0304480521960296
-0.0286140448027986
-0.0269860734673237
-0.0255832782071402
-0.0244143736243862
-0.023480589787159
-0.0227760878915095
-0.0222876113261338
-0.0219961447620734
-0.0218821573510319
-0.0219333043088227
-0.0221510498891777
-0.0225522796438239
-0.0231638984745177
-0.0240112641080449
-0.0251032834351962
-0.0264175128674747
-0.027888415683245
-0.029401852603928
-0.0307987738355526
-0.0318901806374537
-0.0324832653415625
-0.0324154389937722
-0.0315895394703437
-0.0300012229940663
-0.0277498699598912
-0.0250279607318965
-0.0220898718854636
-0.0192072136109107
-0.0166218936452288
-0.0145086531849829
-0.0129557105901202
-0.0119664395832284
-0.0114787027853894
-0.0113937402198905
-0.0116048362343089
-0.012017618825145
-0.0125579020977788
-0.0131677947141369
-0.0137945590162497
-0.0143783751896806
-0.0148448650886694
-0.0151065836572532
-0.0150749451533999
-0.0146803481680988
-0.0138945935714846
-0.0127478809672008
-0.0113339166623825
-0.00980039225165959
-0.00832652842647115
-0.00709292752490463
-0.00625076846285127
-0.00589707721368459
-0.0060606891987486
-0.00670061427830432
-0.00771601869840477
-0.00896542154919937
-0.0102916643598507
-0.0115484429368524
-0.0126238132022863
-0.0134563931033014
-0.0140411415136216
-0.0144235668654181
-0.0146836717244812
-0.0149132009733055
-0.0151911753797909
-0.0155630802303642
-0.0160286248299655
-0.0165417122886977
-0.0170239317199083
-0.017389577733569
-0.0175766417220804
-0.0175754605627391
-0.0174456640426755
-0.0173133890600692
-0.0173447104055042
-0.0176973791915113
-0.0184598221058457
-0.0195920740653243
-0.0208862937413941
-0.0219636317680886
-0.0223188605810513
-0.0214145139286412
-0.018813681225665
-0.0143274457997714
-0.00814226640765694
-0.000887935980677891
0.00638817494521606
0.012357953612666
0.0156509667265234
0.0151549031276619
0.010314419698118
0.00135467866795018
-0.0106365824307949
-0.0238107236976641
-0.0358506995410724
-0.0444213920128869
-0.0477060459412168
-0.0449255341067704
-0.0367192157156278
-0.0252684630879408
-0.0140719759951532
-0.00733789475075226
-0.00903835665131963
-0.0217672748305685
-0.0456328656031189
-0.0774762960188098
-0.110708083238037
-0.135973018187705
-0.142688623492864
-0.121274170609213
-0.0656490823524287
0.0245953824669697
0.142984875602768
0.276399534292422
0.406928419984286
0.51508336400428
0.58370240379291
0.601607358313255
0.566066508204901
0.483386697507394
0.367457847548447
0.236645055976374
0.109875612512633
0.00294436590911366
-0.0740866714358567
-0.11791072973925
-0.131414137189262
-0.121923078693477
-0.0988725494363254
-0.0715275029364785
-0.0472418535567375
-0.0305113131284595
-0.0228394036355284
-0.0232516287404409
-0.0291908251194225
-0.0375091820183702
-0.0453214539443779
-0.0505719383470699
-0.0522662351347808
-0.0504040721464458
-0.0457065135250787
-0.0392539566681762
-0.0321428809507951
-0.0252377866485191
-0.0190522314793205
-0.0137520284315529
-0.00924447651726379
-0.00530481326891019
-0.00169429603118793
0.00176122228992161
0.00514416886883216
0.00846377699738684
0.0117023944360705
0.0148670981308277
0.0180267482908069
0.0213227531305552
0.0249525686770515
0.0291346330213949
0.0340688354288326
0.0399064025840473
0.0467379698788153
0.054600619351129
0.0634964970983131
0.0734102714823599
0.0843125848717325
0.0961422717223263
0.108769387768569
0.121950239452814
0.135290884026323
0.14823491451852
0.160085173656062
0.170059930187814
0.177375223362566
0.181338787473666
0.181438070297588
0.177405593527577
0.169249387632176
0.157243910158055
0.141885856151025
0.123826894480373
0.103799318347738
0.0825498138986566
0.0607914165670481
0.0391761492135537
0.018283826576706
-0.00138123507380382
-0.019393484672145
-0.0354138698724733
-0.0492020398746314
-0.0606291675273626
-0.0696856436046584
-0.0764786023123091
-0.0812170575419488
-0.0841859618548425
-0.0857134205192935
-0.0861369334619138
-0.0857745930078921
-0.0849054982803641
-0.0837607101138771
-0.0825230431647963
-0.0813320565546136
-0.0802902122183144
-0.0794671460740042
-0.0789009552029979
-0.0785976911852385
-0.0785318383871244
-0.0786506228979392
-0.0788836377910965
-0.0791572836083268
-0.0794115725468752
-0.0796152202327239
-0.0797740637053923
-0.0799284053377621
-0.0801373627797271
-0.0804524738857793
-0.0808876658124252
-0.0813964413639804
-0.0818673802462053
-0.0821441618110618
-0.0820672245925276
-0.0815246892904218
-0.0804948761420233
-0.0790642672985149
-0.0774125414556531
-0.0757673054863747
-0.0743413730327285
-0.07327141178621
-0.0725766490100958
-0.0721503255578905
-0.0717867152452984
-0.0712358338576385
-0.0702698385780653
-0.0687422558299019
-0.0666242868015004
-0.0640098165887161
-0.0610894658901421
-0.0581017158940906
-0.0552745806958614
-0.0527736612133276
-0.0506708583577541
-0.0489424232486046
-0.0474965987892655
-0.0462221242264089
-0.0450419883666269
-0.0439545342050265
-0.0430476983324524
-0.0424807824734007
-0.042438365955382
-0.0430690547233651
-0.0444256035371307
-0.0464223842312216
-0.0488221226503276
-0.0512574687743982
-0.0532854486407565
-0.0544652824648362
-0.0544437102261357
-0.053028553108127
-0.050232555940306
-0.0462761943762566
-0.0415484134218657
-0.036534831035043
-0.0317305154429644
-0.0275570941055215
-0.0243013420724542
-0.0220857496400955
-0.0208733211937382
-0.0205014995115795
-0.0207349155415056
-0.0213237401626084
-0.0220538950646209
-0.0227779711438452
-0.0234217152689423
-0.0239689650466665
-0.0244347497490903
-0.0248386095935013
-0.0251868215799632
-0.0254653280679265
-0.025639231814559
-0.0256534944641429
-0.0254330794844416
-0.0248856473330967
-0.0239118066561946
-0.022425298090945
-0.0203801830757432
-0.0177974454904373
-0.0147818869819581
-0.0115224444551516
-0.00827390406553666
-0.0053231183897123
-0.00294613495532708
-0.00136360576531312
-0.000701670196013812
-0.000965505642204758
-0.00203269738646569
-0.00367182726779573
-0.00558680939688001
-0.00747987933445096
-0.00911807934637414
-0.0103829197124329
-0.0112837742430157
-0.0119240855538885
-0.0124244874339618
-0.0128243298198126
-0.0129965766065018
-0.0126143365094624
-0.0111966307881772
-0.00823761380870921
-0.00339409623860891
0.00331926112401677
0.011390419614354
0.0197843462409119
0.0270662076432118
0.0316706210809006
0.0322705665823794
0.0281616642315258
0.019557561844399
0.00769875254466439
-0.00528797871651031
-0.0167852327272728
-0.0242751657904524
-0.0260041402089195
-0.021564992241537
-0.012236357100969
-0.000951284610181478
0.00816734070661021
0.0106788968190658
0.00298110566725148
-0.0164650115821419
-0.0461226782367468
-0.0808801905426232
-0.112318252824362
-0.129871528720403
-0.122816017752049
-0.0827794405322018
-0.00625619006247891
0.103516453468111
0.235932682904333
0.374035965076814
0.497192835543542
0.584981662847137
0.621458798413007
0.598759255145284
0.519068577252544
0.3943799609462
0.244036583434054
0.0906744362698268
-0.044383680534151
-0.145127451367841
-0.203343080603398
-0.219160387826302
-0.199784564907458
-0.156963111489282
-0.103952629509448
-0.0527339075554239
-0.0120281372392606
0.0136214880402643
0.0237298895395441
0.02096265919149
0.00980961591297658
-0.00478411793178553
-0.018531939979495
-0.0284943231401063
-0.0333066032259376
-0.0330192119740746
-0.0286877497928485
-0.021867137781535
-0.0141427924258714
-0.00678751224674233
-0.000581390111327593
0.00421336686062997
0.00776187769521601
0.01050304065725
0.0129836431198153
0.0157179814001148
0.0190936261688989
0.0233280238398907
0.0284695035585159
0.0344305059672579
0.0410388836258423
0.0480934381762815
0.0554122248286812
0.0628665452861295
0.0703986365542606
0.0780246912252866
0.0858259692433205
0.0939302349937734
0.102485163056081
0.111625614748547
0.121437774385183
0.131924499287788
0.142977070740879
0.154358060049348
0.165698098252353
0.176506766930242
0.186195899849012
0.194113200055387
0.199585109026478
0.201968994374194
0.200714031354582
0.195426621472401
0.185931032353234
0.172312228199561
0.154928516208352
0.134387488015953
0.111487873927853
0.0871385295339728
0.0622701092742346
0.037753717043042
0.0143359466280289
-0.00740506695265019
-0.0270803158630443
-0.0444857384037977
-0.0595734693270831
-0.0724036642939369
-0.0830887501173947
-0.0917467185234242
-0.0984789080627821
-0.103379240826301
-0.106568910189919
-0.108239025074647
-0.108679452948653
-0.108277115348308
-0.107478698329918
-0.1067259110545
-0.106380980510511
-0.106662954727699
-0.107611370314938
-0.109085426200689
-0.110797807772747
-0.112375496773667
-0.113435754694195
-0.113663263299243
-0.112874074927986
-0.111054225043939
-0.1083656003677
-0.105117834254939
-0.101711348289259
-0.0985623000861426
-0.0960241401447803
-0.0943214750166933
-0.0935094108737091
-0.0934663470804317
-0.0939219221973152
-0.0945156125927943
-0.0948755291458074
-0.0947013661899098
-0.0938315979213137
-0.0922757107008852
-0.0901999678006585
-0.08786925267005
-0.0855629656774073
-0.0834927343287386
-0.0817490452835386
-0.0802931229387912
-0.0789941957310295
-0.077696937492003
-0.0762944949328525
-0.0747818379777872
-0.0732718333963545
-0.0719691567391358
-0.0711103350911875
-0.070888159130027
-0.071383479100566
-0.0725261370076669
-0.0740992285489891
-0.0757881534041628
-0.0772613274677234
-0.0782579630855466
-0.0786546865366124
-0.0784892070428562
-0.077934054820182
-0.0772310149662382
-0.076610221220732
-0.0762217650344103
-0.0761011824052571
-0.0761764846758317
-0.0763089794103413
-0.0763487377844328
-0.0761824510393405
-0.0757575616559765
-0.0750787361968388
-0.0741848688894722
-0.0731212683127266
-0.0719204398689658
-0.0705979893861903
-0.0691618727869105
-0.0676273164044668
-0.0660280109486246
-0.0644162569136156
-0.0628489750365233
-0.0613611683231045
-0.0599324390921993
-0.0584550633151131
-0.0567137004229129
-0.0543868931370075
-0.0510788879591034
-0.0463865809850251
-0.0399997667187108
-0.0318225765438382
-0.0220907945034382
-0.0114476641720655
-0.000937129411988788
0.00811475411106297
0.014330923877754
0.0165898872406204
0.0143377633224013
0.0078207151818961
-0.00183845925304722
-0.0127655913174622
-0.0226647482461949
-0.0293071743869756
-0.0310911411559773
-0.0275517812456218
-0.0196856120207108
-0.00996626310384894
-0.00197227009688973
0.000375428601567746
-0.0061302123500681
-0.0228293706876255
-0.0482191002678927
-0.0774533421238316
-0.102574924003007
-0.113613038338688
-0.100487887738706
-0.0554339418070164
0.0245611236505669
0.135933370119908
0.267943540285176
0.403699401709638
0.522820166997855
0.605306866539303
0.63577861505873
0.607023946804754
0.521897778665366
0.392982327143255
0.240030421017352
0.0858345424249257
-0.0484020781769356
-0.147026031371229
-0.202327304328462
-0.214970665338723
-0.192619092479779
-0.147327194327036
-0.0924832626521312
-0.0400455697644296
0.00139134354390606
0.0274596604993247
0.0378572905188817
0.0354214214383327
0.024799654279181
0.011081659570189
-0.00132394999126458
-0.0094022123730485
-0.0117927178630896
-0.00865867939397903
-0.00128649209684171
0.0084404323736446
0.0185618397436678
0.0274565447391042
0.0340985509002546
0.0381402893743355
0.0398452027573056
0.0399157107731215
0.0392729593963782
0.0388422288750436
0.0393851922459418
0.0414016482528216
0.0451038613774414
0.0504506960292755
0.0572191236733303
0.0650881411511164
0.0737138538756248
0.0827825667618176
0.0920382928404609
0.101288825836034
0.110398261935604
0.119273716626822
0.127851762186538
0.136087554647465
0.143947319309585
0.151402592259445
0.158422383924241
0.164958201266735
0.170918282533013
0.17613250253057
0.180317067470851
0.183054673441828
0.183806794872772
0.181967804045266
0.176957243327379
0.168331907443369
0.155889819893861
0.139738144218091
0.120306676679315
0.0983036563901024
0.0746253558536481
0.0502409062990668
0.0260774146903817
0.00292783134239957
-0.0186037383113293
-0.038115486321597
-0.0553871162772209
-0.0703390662030185
-0.0829877604189565
-0.0934094870506222
-0.101718905379777
-0.108061231553757
-0.112612328595538
-0.115579423195959
-0.117196625726546
-0.117712708833716
-0.117372603753874
-0.116397637643617
-0.114971105814833
-0.113234101930686
-0.111292033610539
-0.109227275114982
-0.107110724681268
-0.105006015735075
-0.102964196022409
-0.10101190869089
-0.0991400907345676
-0.0973010236822708
-0.0954187335799142
-0.093412458156617
-0.0912273376224372
-0.0888627028785082
-0.0863877391933638
-0.0839373290986902
-0.0816866397896947
-0.0798094968082619
-0.0784306268113143
-0.0775841603029192
-0.0771900397276764
-0.0770564354738662
-0.0769105658560091
-0.076453462606675
-0.0754275326701304
-0.0736808062137966
-0.0712103845522667
-0.0681714400139256
-0.0648471976186228
-0.0615869665274932
-0.0587289200680977
-0.0565280797186876
-0.0551069054818297
-0.0544381562123365
-0.0543607708021969
-0.0546223620293527
-0.0549377321492518
-0.0550512367118181
-0.0547908933713232
-0.054103415688141
-0.0530621694772578
-0.0518448652149392
-0.0506844548250051
-0.0498040426917539
-0.0493525199118638
-0.0493594471431794
-0.0497235237906139
-0.0502391996009252
-0.0506538966122994
-0.0507385825334306
-0.0503506269507546
-0.0494709847071673
-0.048206449190781
-0.0467590878877186
-0.0453751594249592
-0.0442910490777232
-0.0436919991149973
-0.0436915564104843
-0.0443293718148868
-0.0455770814129923
-0.0473402398972063
-0.0494494697449152
-0.0516434863073163
-0.0535558063392776
-0.0547215586120534
-0.054618804251593
-0.0527503118425164
-0.0487588162852827
-0.042554873122165
-0.0344256708357196
-0.0250892139460167
-0.0156632729304908
-0.00753286427306909
-0.00212240528888605
-0.000605222451241108
-0.00360723733271919
-0.0109758385007336
-0.0216834665238157
-0.0339164738298545
-0.0453655341974355
-0.0536895178206857
-0.057077884454392
-0.0547965215888624
-0.0475785610738094
-0.0377245081167746
-0.028812088915235
-0.0249874113821395
-0.0299086102152659
-0.0455238840200395
-0.0709612323692344
-0.101856140159603
-0.13041752255898
-0.146415034416064
-0.139067772171622
-0.0995596833658601
-0.0236633115568568
0.0861996529235785
0.220122059794796
0.361548964707914
0.489850061599806
0.584210658288399
0.627997015483541
0.612517889552662
0.539168050552331
0.419319919208821
0.271934741385186
0.119507057007055
-0.0165852939199128
-0.120138375891143
-0.182651820487567
-0.203899170276829
-0.190667606971612
-0.154234143414264
-0.107357609962204
-0.0615389930236298
-0.0250947069969752
-0.00229099383478786
0.00650383133304288
0.0039094485238389
-0.00576622481085516
-0.0178497764333922
-0.0283643136537237
-0.0346729843022526
-0.0356759689280351
-0.0316364413344829
-0.0237715284201083
-0.0137587480219568
-0.00328516996579219
0.00627901288925918
0.0140519706082233
0.0196694396347008
0.0232114857956402
0.025075760014197
0.0258402818135862
0.0261442164606503
0.0265987792965737
0.0277276777929996
0.0299301705349471
0.0334597527330127
0.0384150204993062
0.0447428337922495
0.0522551804924322
0.060660126111585
0.0696051360730137
0.0787286919493486
0.0877135968421347
0.096333003754192
0.104479090054599
0.112165767817699
0.119501521603583
0.126635743154175
0.13368962761786
0.140687772840546
0.147506765539895
0.153852239604413
0.159268516225487
0.163178096719432
0.164944041920205
0.163946893182595
0.159667930505579
0.15177021265755
0.140166905918567
0.125064048537733
0.106965116397419
0.0866300447489637
0.0649914136008044
0.043041939925146
0.0217156001516242
0.00178621213897327
-0.016198356869004
-0.0319384461161563
-0.0453641467039271
-0.0565868317880126
-0.0658351749764468
-0.0733903746141759
-0.0795327142773585
-0.0845068203611395
-0.0885070144679949
-0.0916786958454591
-0.0941285176847739
-0.095936153135432
-0.0971632261671329
-0.0978588576888045
-0.098064108471033
-0.0978178943193509
-0.0971648656225021
-0.0961630046568301
-0.094887272880966
-0.0934264331274156
-0.0918727225080334
-0.0903070941355056
-0.0887848539066938
-0.0873267306470464
-0.0859187534706333
-0.0845216711784579
-0.0830880028756632
-0.0815825842712406
-0.0800009186967234
-0.0783794345742125
-0.0767936469271475
-0.0753440011984281
-0.0741333543749808
-0.0732427912528589
-0.0727127317643963
-0.0725341707113214
-0.0726514208673398
-0.072974296908524
-0.0733954042307303
-0.0738075107837322
-0.0741167668772207
-0.0742495316998894
-0.0741532910655799
-0.0737945876061691
-0.0731577276549002
-0.0722466476765615
-0.0710894048130278
-0.0697419346540109
-0.0682866072524211
-0.0668224814220348
-0.0654475485841564
-0.0642371084189705
-0.0632248469513259
-0.0623931112496956
-0.0616765452242341
-0.0609797283587135
-0.0602057621446682
-0.0592896041997332
-0.0582279849024296
-0.0570974407623779
-0.0560535010970948
-0.0553072838329082
-0.0550805586153984
-0.0555461481503475
-0.0567658148104437
-0.0586404487092643
-0.0608862231673785
-0.063045890674161
-0.0645381589148388
-0.0647417108552177
-0.0631048287297444
-0.0592667475067351
-0.0531720852435177
-0.0451547204047166
-0.035964214909444
-0.0267105478908712
-0.0187154545383939
-0.0132810214013205
-0.0114128915010596
-0.0135574892801023
-0.0194214969295125
-0.0279328040567398
-0.0373764225480172
-0.0457024202295049
-0.0509638683551668
-0.0518082926758277
-0.0479213353543793
-0.0403105023412684
-0.0313246565022668
-0.024336187550132
-0.0230703038361638
-0.030646828681358
-0.0484927390579615
-0.0753673592978129
-0.106788790439706
-0.135132118711281
-0.150569092604675
-0.142836661933191
-0.103586655907343
-0.028838430783232
0.0790927447972754
0.210813638576614
0.350641902515331
0.4790223197149
0.576175654598226
0.626183722517069
0.62050056486002
0.559948878433158
0.454624158677827
0.321694576493395
0.181675553501651
0.0541724598996296
-0.0458195255941007
-0.110210400407704
-0.138324463074859
-0.135757330330149
-0.112110634392084
-0.0783177045760036
-0.0442363968381938
-0.0169852934014176
-0.000225742852494809
0.00566873163511108
0.00280090063510962
-0.00537296410593022
-0.015157242356097
-0.0234838014720683
-0.0284081178109674
-0.0292253888004823
-0.0262841655160063
-0.0206216170519975
-0.0135506303785705
-0.0063036707961815
0.000204180833764274
0.00547556153668559
0.00941299364316349
0.0122223258149124
0.0142825721700676
0.0160210439494796
0.0178195775603134
0.0199628319230587
0.0226269214667659
0.025897932492426
0.0298054213273575
0.0343556142226527
0.0395524974837121
0.0454015023356779
0.0518981522732391
0.059010218466538
0.0666642956714702
0.0747453024237566
0.0831112170339325
0.0916180768311224
0.10014504024701
0.108608191416591
0.116954970169076
0.125137387746769
0.133069534180757
0.140580992235528
0.147380585588951
0.153043455953476
0.157029429870807
0.158733673796898
0.157563398514819
0.153028087296032
0.144826524764265
0.132912993934391
0.117528130500711
0.0991867687722701
0.0786242458186723
0.0567117775167427
0.0343580661923394
0.0124161924268138
-0.00838834418553731
-0.0274994185438851
-0.0445410353071706
-0.0593033367102706
-0.0717145401483895
-0.0818100091977376
-0.0897064933348113
-0.0955843409013347
-0.0996755262687411
-0.10225246256247
-0.103612560489898
-0.104056172478914
-0.103859905499141
-0.103251406227196
-0.102393449915827
-0.101383233145082
-0.100267643877952
-0.0990690155164522
-0.0978112831502573
-0.0965359667111428
-0.0953017108695847
-0.0941684419346031
-0.0931740463440384
-0.0923146101075665
-0.0915374805705003
-0.0907508235673547
-0.0898465738509205
-0.0887287574977645
-0.0873382208308619
-0.0856677383220461
-0.083765954169031
-0.0817318297290657
-0.0797020310995155
-0.0778328654605469
-0.0762776634478922
-0.0751610997141557
-0.0745539334788583
-0.0744539642671535
-0.0747798432078859
-0.0753823466171181
-0.0760729128254859
-0.0766634174841172
-0.0770067585052319
-0.0770267933570804
-0.0767291813862931
-0.076190724295058
-0.0755314525849228
-0.074878336457722
-0.0743307481383605
-0.0739361047642769
-0.0736808425189573
-0.0734981581265637
-0.0732903753621947
-0.0729606360919305
-0.0724461236126634
-0.0717435668176682
-0.0709180400956063
-0.0700889052343504
-0.0693922820690721
-0.0689264791316092
-0.0686932802039278
-0.068551970229736
-0.0682032306113458
-0.0672157615968625
-0.0650996642029594
-0.0614186515910357
-0.0559209662366345
-0.048659795995385
-0.0400706280632306
-0.030976877198535
-0.0225066732347182
-0.0159217483318623
-0.0123807374351379
-0.0126789664805652
-0.017019602938114
-0.0248728884228436
-0.034969812970498
-0.0454556691613368
-0.0542006914463431
-0.0592327595252576
-0.0592242276050299
-0.0539361078785853
-0.0445054641385083
-0.033464920508632
-0.0244142358031126
-0.0213256697098677
-0.0275523178926843
-0.0447070123165997
-0.071664848489896
-0.103985835378736
-0.134028797970588
-0.151918149316267
-0.147336458346159
-0.111879738040081
-0.0414881457195924
0.0616722368583691
0.188482150455641
0.323695165090705
0.448347035370504
0.54333697485962
0.593386085924765
0.590386415111228
0.535242275268357
0.437677089475385
0.31403610493252
0.183679806515848
0.0649399495440541
-0.0283278349630817
-0.0888164748656892
-0.116142687095426
-0.115686381745586
-0.0964153276403565
-0.0683719597902756
-0.040450713445589
-0.0188991610386353
-0.00671754246286083
-0.00388786879043076
-0.00819110938992069
-0.0162937067484895
-0.0247988249544377
-0.0310387111904475
-0.0334975692609523
-0.0318650342494665
-0.0268031724381852
-0.0195526786084319
-0.0115073771891093
-0.00386018383575403
0.00261778925900268
0.00764719211749264
0.0113785461593159
0.0142423490910138
0.0167658566472619
0.0194084992409262
0.0224539298965158
0.0259759024202234
0.0298733050362939
0.0339522495452571
0.0380239848533514
0.0419879492869562
0.0458781213024618
0.0498642161336623
0.05421255221612
0.0592210003806438
0.0651468502226014
0.0721458458242255
0.080235970124287
0.0892921179977017
0.0990693620007891
0.109245105909206
0.119465920177335
0.129384622444044
0.138677552035851
0.147039768425823
0.154164389939836
0.15971842517804
0.163329139835309
0.164591756193929
0.163102231603624
0.158510482620733
0.150582749052424
0.139259023846214
0.124692892577036
0.107265370286965
0.0875696296098695
0.0663685897217762
0.0445313896188337
0.0229573433987492
0.00249698357048943
-0.0161205401787187
-0.0323458720289285
-0.0458481353270576
-0.0565310898541525
-0.0645264559778257
-0.070165824404321
-0.0739334970771908
-0.0764032856978426
-0.0781636266777345
-0.0797380594373383
-0.0815118332130823
-0.0836783183890793
-0.0862184128144358
-0.0889207005322954
-0.091440593687019
-0.0933861452136141
-0.0944105228941739
-0.0942892641109849
-0.0929652589913148
-0.0905542381046782
-0.0873147018577732
-0.0835947182132166
-0.0797712814078784
-0.0761957681265633
-0.0731533713381771
-0.0708382913525494
-0.0693426632443352
-0.0686566708870227
-0.0686787616299058
-0.0692359813501617
-0.0701137015972194
-0.0710916662747193
-0.0719806811260699
-0.0726527430034431
-0.0730578413883075
-0.0732233342839829
-0.0732360407897005
-0.0732114710533137
-0.0732574632116131
-0.0734404449042031
-0.0737619538317083
-0.0741512871997245
-0.0744771765127518
-0.0745772304152932
-0.0742991583174367
-0.0735437805213841
-0.0722982210651402
-0.0706497070724415
-0.0687758387217399
-0.0669140746175279
-0.0653188321215127
-0.0642171879370152
-0.0637732576904696
-0.0640675145975748
-0.0650917822435275
-0.0667552866442939
-0.0688942076713546
-0.0712780886289402
-0.0736109853352861
-0.075531544521032
-0.0766217463396318
-0.0764362186678703
-0.0745608551551935
-0.0707006672386898
-0.0647844834783422
-0.0570621546470315
-0.0481625478367963
-0.0390813155418913
-0.0310782325307097
-0.0254841910225561
-0.0234434954551215
-0.0256407281218467
-0.0320755597266031
-0.0419482554843858
-0.0537022527925583
-0.065241322712059
-0.0743034659104777
-0.0789381732266567
-0.0780032102126659
-0.0715761813233658
-0.0611699006893984
-0.0496548468018066
-0.0408313791662325
-0.0386595798574169
-0.0462393818782017
-0.0647234206509418
-0.0924172374776946
-0.124349399115637
-0.152553941453777
-0.167187036681636
-0.158406979560599
-0.118716272753136
-0.0452579270668372
0.0585498426569079
0.182601978699441
0.31124077465701
0.425875276307128
0.508596321659657
0.545955924505692
0.531949263201621
0.469388124433669
0.369266937656019
0.248279693837902
0.125164959308139
0.0168570044326342
-0.0645936618971723
-0.113669512583085
-0.131402386930583
-0.124001055844029
-0.10063729244665
-0.0710404337132539
-0.0434684761768586
-0.0234207346811405
-0.013211975749687
-0.0123096422250591
-0.0181889591420269
-0.0274020757941794
-0.0365796941994423
-0.0431634746028359
-0.0457741512925414
-0.0442236768488557
-0.0392569814449629
-0.0321484155006535
-0.0242796362442739
-0.0167985061461285
-0.0104159047205276
-0.00535276652828202
-0.00141351651308078
0.00186008565812082
0.00500791941739166
0.00849106251412705
0.0125854607834673
0.0173448185451984
0.0226296773546624
0.0281852259137372
0.0337417047405729
0.0391091101261288
0.0442420592627138
0.0492599820493122
0.0544200848578618
0.0600528611541599
0.0664791262502299
0.0739309532768574
0.0824954269994306
0.0920913839471946
0.102479117681497
0.113295266621114
0.124101270154117
0.134432974126487
0.14384007458746
0.151907332553171
0.158255549746004
0.162528385607199
0.164378340556675
0.163467841475471
0.159496798003745
0.152256917600161
0.141699819252129
0.127996681582629
0.111566302949758
0.0930565693726992
0.0732781716705022
0.0531038900471929
0.0333569508680424
0.0147145979925537
-0.00235248369801525
-0.01759563546018
-0.0309623518311988
-0.0425429111709145
-0.0525072279677964
-0.0610468802687978
-0.068330654068462
-0.0744759360076843
-0.0795358094937066
-0.0835020201137129
-0.0863238893557913
-0.0879407119666979
-0.0883212223394317
-0.0875009817611346
-0.0856085078274832
-0.0828732661217458
-0.0796122717233817
-0.0761963641753689
-0.0730017286179202
-0.0703560738342007
-0.0684908520408449
-0.0675100206667585
-0.0673819753704356
-0.0679555298657966
-0.0689950535662673
-0.0702257197774344
-0.0713781381566804
-0.072222854861627
-0.0725892291698793
-0.0723688268643365
-0.0715083661628171
-0.0699993486114027
-0.0678704649477456
-0.0651858693635325
-0.0620488069736721
-0.0586066856497758
-0.0550513628253572
-0.0516084499201861
-0.0485127317217949
-0.045972694670698
-0.0441331665731151
-0.0430479152647562
-0.042671478325956
-0.0428720095149917
-0.043458283205087
-0.044209253348645
-0.0448964811096201
-0.0452965725214714
-0.045197670179659
-0.0444068639991552
-0.0427632857549796
-0.0401568428665153
-0.0365481834990281
-0.0319836850107743
-0.0266002964251707
-0.0206177838411406
-0.0143188516455082
