0.0924328327290087
0.133912840792978
0.170693696652255
0.199019031066661
0.216751648168785
0.22362379305403
0.221057730421067
0.211673714150108
0.19865269812824
0.185110464509351
0.173598925268239
0.1657981923258
0.162409000955507
0.163213496792642
0.167254791998518
0.173085730644034
0.179040860723694
0.183491607606011
0.185060098661864
0.182786462675905
0.176252423744292
0.165657991251774
0.151840349855968
0.136221496110337
0.120669591626012
0.107260205599161
0.0979392136959946
0.0941211050944145
0.096289671480293
0.103689153207979
0.114202838240655
0.124510838722275
0.130584975914616
0.128507687258784
0.115507803774198
0.0910143772982128
0.0574605646047203
0.0205448983817035
-0.0112900792509402
-0.0282493960033064
-0.0213009533927943
0.0153891442371034
0.0823091989353615
0.173420565628918
0.276483281218797
0.375064448177149
0.451894270107168
0.492755298670662
0.489836457019009
0.443575252650267
0.36244443614424
0.260773451185281
0.155294633631772
0.0614383774860709
-0.00963531427112085
-0.0526239097632335
-0.068119014668747
-0.0613578922401191
-0.0402304336650911
-0.0131531044525793
0.0126862971360352
0.0324168114141869
0.043830186129486
0.0470891849406723
0.0440188789726234
0.0372418931398605
0.0293856919805138
0.022510677154178
0.0178204380986736
0.0156420936109191
0.0156093852358739
0.0169498938299162
0.0187795860692999
0.0203367499126471
0.0211218070383418
0.0209363580030385
0.0198375089428306
0.0180431585592933
0.0158302841849919
0.0134571002027043
0.0111230077999441
0.00896817352989544
0.00710389660602637
0.00565234906032515
0.00476972144916451
0.00463856132210904
0.00543327362438279
0.00727227358613824
0.0101712206220196
0.0140123771865649
0.0185434855095378
0.0234089092464165
0.0282020841063066
0.0325242516725956
0.0360392476607486
0.0385163755160195
0.0398520671525176
0.040065763692814
0.039275989479401
0.0376664693894262
0.0354461476461146
0.0328032922842612
0.0298592408494977
0.0266326517071053
0.0230229949445519
0.0188186400146186
0.0137350680594454
0.0074843930579158
-0.000136884354487361
-0.00916792990515681
-0.0194362826888095
-0.0305565490936153
-0.0419773033002614
-0.0530676668626897
-0.0632211300030211
-0.0719456823389291
-0.0789173604855128
-0.083992713416983
-0.0871880101446568
-0.0886360011260775
-0.088533912914836
-0.0870997369311871
-0.0845484975952313
-0.0810870138703263
-0.0769182539827591
-0.072249398330708
-0.067300586832764
-0.0623083626970144
-0.0575176892397974
-0.053164114312398
-0.0494536089824463
-0.0465444464212465
-0.0445310893319646
-0.0434325140531161
-0.0431902964720866
-0.043677209130642
-0.0447114089741013
-0.0460735931714156
-0.0475292996602858
-0.0488557887916121
-0.0498668747694323
-0.0504304472933879
-0.0504795116522676
-0.0500173686477542
-0.0491126453310606
-0.0478818032759148
-0.0464652597360898
-0.0450059113028328
-0.0436329007656938
-0.0424499401744578
-0.0415305373707339
-0.0409226049739737
-0.040658172772703
-0.0407601977267595
-0.0412434178490824
-0.0421107273694794
-0.0433439226905365
-0.0448861275867277
-0.0466202542004579
-0.0483554586318039
-0.0498319176691911
-0.0507483687804373
-0.0508150575675281
-0.0498316998016724
-0.0477774029703961
-0.0448848413597232
-0.0416691453539415
-0.038892854113049
-0.0374606671722876
-0.0382500423487725
-0.0419024406836196
-0.048620121880707
-0.0580196964859971
-0.0690833591274098
-0.0802341567361183
-0.0895479138386513
-0.095092644807187
-0.0953535924614693
-0.0896709304331745
-0.0785977768882453
-0.0640763669513046
-0.0493325061600954
-0.0384197627998804
-0.0354162201957233
-0.0433740069180886
-0.0632187353809673
-0.0928714739070834
-0.126897403474766
-0.156939060414739
-0.173044096877376
-0.165764193864199
-0.128639223789129
-0.0604628562171773
0.0333656225968353
0.140984351412017
0.245937454530904
0.330486170887717
0.379576600635551
0.384384907444319
0.344411779856484
0.267505776981664
0.167832465000351
0.0624367918590901
-0.0325744131503852
-0.105198960182306
-0.149344417736423
-0.165039237308484
-0.157273468627008
-0.133999661329405
-0.10392478777413
-0.0746339830094704
-0.0513821822705207
-0.0366594056686051
-0.030439589959944
-0.0308908042090519
-0.0352729195907345
-0.0407780428855427
-0.0451512807398752
-0.047022354913168
-0.0459561758795045
-0.0422871968164053
-0.0368335970213606
-0.0305864163487953
-0.0244435252422048
-0.019029411743753
-0.0146189593092907
-0.0111601456772129
-0.00836610778776962
-0.00583481766949513
-0.00316152270573932
-2.30879745025761e-05
0.00377738968338479
0.00830876498660963
0.0135425924141179
0.0193965860277142
0.0257737330450968
0.0325881458308236
0.0397719230053185
0.0472599355870246
0.0549599323430517
0.0627265364975535
0.0703560595086921
0.0776068547089367
0.0842404801108849
0.0900745391826835
0.0950313944669461
0.0991612643745931
0.102625729272252
0.105646739658807
0.108439621357838
0.111148199363581
0.113795509656903
0.116261316199152
0.118291390552093
0.119531118271918
0.11956917143681
0.11798275662746
0.114383939958626
0.108466443751902
0.100049978174632
0.0891224649082742
0.0758822684092215
0.0607735668502017
0.0444963565581352
0.0279730644720882
0.0122655541132599
-0.00155193193015211
-0.0125483570692709
-0.0200911826840794
-0.0239624175940747
-0.0244028713096692
-0.022073191170616
-0.0179401608942394
-0.0131087994181211
-0.0086320626255208
-0.00534021641424045
-0.00372868847670386
-0.00392323185408666
-0.00571923957448835
-0.00867942293161775
-0.0122656544042051
-0.0159718040806771
-0.0194238813416831
-0.0224285512489663
-0.0249704669343287
-0.027169526001957
-0.0292136365925682
-0.0312885273827502
-0.0335282804558765
-0.0359997258677283
-0.0387169758939416
-0.0416727368931446
-0.0448707777132025
-0.0483411070152025
-0.0521202342263034
-0.0561945503906965
-0.0604297680113732
-0.0645226443104383
-0.0680038763658966
-0.0703037267554528
-0.0708738397152246
-0.0693382633476698
-0.0656277900298468
-0.0600493526653379
-0.05326206084802
-0.0461596496304488
-0.0396818565670996
-0.0345957251914128
-0.0313033378712349
-0.0297330165386418
-0.0293478903310896
-0.0292711501523488
-0.028499909251071
-0.0261620771574554
-0.0217574840760281
-0.0153215240929697
-0.00746711098613998
0.000707034035844743
0.0078235014014462
0.0125079505732658
0.0136862983387678
0.0108300810106877
0.00409773197796334
-0.0056477023371443
-0.0169366532719369
-0.0278899361520463
-0.0364959537346695
-0.0409440833217852
-0.039981783468221
-0.0332533137787584
-0.0215608610844814
-0.00696746718408701
0.00734319098200038
0.0175046559904583
0.0196975242852741
0.0110908650716416
-0.00916656635115953
-0.0391427284284287
-0.0737806105693322
-0.105253974470196
-0.124130385995903
-0.121256593494558
-0.0900505068239087
-0.0286712491966121
0.0585716931413931
0.161132240970894
0.263734955978114
0.349301862978246
0.402659139789373
0.414058615593563
0.381509465700468
0.311222960650607
0.216043341623779
0.11235531435645
0.0163847228009195
-0.0590957352809363
-0.106872718726047
-0.125859993914364
-0.120242625399519
-0.0976555037747666
-0.0669955635876065
-0.0364214620439382
-0.0119305703630103
0.00330921555176028
0.00890107697491595
0.00661467821936832
-0.00051406664646279
-0.00913255179364968
-0.0163719078771719
-0.0203686398438362
-0.0204584065278141
-0.017070792522545
-0.0114081401444119
-0.00501491707576019
0.000653536056931923
0.00456722585326575
0.00630067601534749
0.00604236125124173
0.00446542208504906
0.00251336929342545
0.00116088801633137
0.00120760937977711
0.00314760854203571
0.00712786875197953
0.0129802581057368
0.0202994876242628
0.0285407377061225
0.0371137305871245
0.0454554328629937
0.0530764346072504
0.0595886152988444
0.0647218516735915
0.0683294624047717
0.0703802122197487
0.0709402381100977
0.0701501846021729
0.068199609755468
0.0653016407373557
0.0616755090879363
0.0575411532218573
0.0531176537338853
0.0486109364736393
0.0441836855329161
0.0399115040012568
0.0357353290737855
0.0314260150405398
0.0265848129352911
0.0207005826750293
0.0132629723409164
0.00390408845173864
-0.00747199385472413
-0.0206105275895665
-0.0349068331247655
-0.0494956567422777
-0.0634080219303235
-0.0757483440736499
-0.0858415667091508
-0.0933181351677081
-0.0981261145898173
-0.100476937452207
-0.10074809656889
-0.0993785802021392
-0.0967892503112734
-0.0933424867270753
-0.0893394820596815
-0.0850462973353898
-0.0807324083388198
-0.0766961574925832
-0.0732537520599664
-0.0706882246651611
-0.0691772520415367
-0.0687283001235062
-0.0691478191321122
-0.0700641074686495
-0.0710070949231645
-0.0715223900551611
-0.0712784443979732
-0.0701308223235493
-0.068129233220292
-0.0654723734148763
-0.06242768924257
-0.0592433672164603
-0.0560839827304055
-0.0530096379262521
-0.0499969369010898
-0.0469863438443634
-0.0439389217958409
-0.0408854565027614
-0.0379493035793623
-0.0353304558502988
-0.033253895337281
-0.0318976278261528
-0.0313184599393664
-0.0313949437114216
-0.0318106496781227
-0.0320957647423547
-0.0317247433813673
-0.03024556761332
-0.0274065326652388
-0.0232466390817979
-0.0181187132698015
-0.0126263713110666
-0.00748319136134932
-0.00333243992406253
-0.000579160464644621
0.000718630720593402
0.000866301058603425
0.000443652201254663
0.000129307272334779
0.000488915452734762
0.00178995668365419
0.00389493625414385
0.0062640857126822
0.00807554267966614
0.00844119303170159
0.00666513197951458
0.00247755663067119
-0.00381284758816505
-0.0112845116019787
-0.0185052601532563
-0.0237701573593484
-0.0254463453793567
-0.0223699010667285
-0.0142238427778174
-0.0018168480988941
0.0128244370712091
0.0266271710482764
0.0359455774421047
0.0373077534196624
0.0283352965025885
0.00866440356753544
-0.0193625087049644
-0.0504872164314977
-0.0770105416462299
-0.0900230273026556
-0.0812728279167923
-0.0453390884741254
0.0184079010392746
0.104663735719031
0.202371138733817
0.296427786113527
0.37067864355125
0.411508073046169
0.411069337921347
0.369207410273861
0.293483568722571
0.197293783785943
0.0966635261632511
0.0066672579957665
-0.0615558286214744
-0.102501631085619
-0.116479196444537
-0.10847765692577
-0.0862360873178299
-0.0581240386648178
-0.0313507820093378
-0.0108277114616336
0.00121287648504315
0.00493600770666765
0.00218534522410938
-0.00440130591315781
-0.0122048962418494
-0.0192061572861331
-0.0242639523579341
-0.0271063817679319
-0.0281171306040041
-0.0280280507401392
-0.027617052536526
-0.027479168267497
-0.0279068324663377
-0.0288834981409179
-0.0301624563525282
-0.0313837355032374
-0.0321863407143091
-0.0322901798597088
-0.031535848968316
-0.0298809831984137
-0.0273654593660621
-0.0240679094503569
-0.0200723666248218
-0.0154519710251086
-0.0102701995401708
-0.00459869062926252
0.00145558737163164
0.00772970134251254
0.0140045784895399
0.0200269149933234
0.0255463229626264
0.0303606918245336
0.0343607153724691
0.0375579744165477
0.0400816176600068
0.0421412761119362
0.0439661501563158
0.0457331954792052
0.0474981267093742
0.0491474582623489
0.0503890862478475
0.0507860813378157
0.0498242636599142
0.0470010720095713
0.0419252024601503
0.0344118367701758
0.0245515722717622
0.0127346022986306
-0.000376814805754975
-0.0139260969981966
-0.0269825641484936
-0.0386840215499681
-0.0483682399430169
-0.0556609886494605
-0.0605048821995674
-0.0631302359726735
-0.0639787200283963
-0.0635990879571393
-0.0625422611995858
-0.061280104236986
-0.060157145968817
-0.0593721987031629
-0.0589858314466796
-0.0589499227338291
-0.0591487414231359
-0.0594363125704231
-0.0596614733482945
-0.0596816861537913
-0.059368158820595
-0.0586033847459883
-0.0572774972826667
-0.0552954959141051
-0.0526012833501771
-0.0492110175491309
-0.0452421156225018
-0.0409268482101835
-0.036601423174607
-0.0326633512984685
-0.0295005498465955
-0.0274109567535546
-0.0265356910082722
-0.0268193659655763
-0.0280023354048386
-0.0296482058532747
-0.0312061538982779
-0.0320965120868722
-0.0318006834329397
-0.0299402133363384
-0.0263357775069952
-0.0210367621112521
-0.0143133442224277
-0.00661291795365205
0.00150698230661089
0.0094563332391593
0.0166906929286769
0.0227766351974055
0.0274295119021401
0.0305184420494708
0.0320487076902594
0.0321365578445836
0.0309853095408135
0.0288668367308454
0.0261111576158061
0.0231006651105635
0.0202570146377596
0.0180107960957485
0.0167572623633355
0.0168099101746027
0.0183601784854933
0.0214460409899659
0.0259320709907625
0.0315022389797835
0.0376617140408927
0.043745992942397
0.0489487686790589
0.0523883859290856
0.0532223801817502
0.0507988178712808
0.0448183612779493
0.0354738540694989
0.0235289635790244
0.0102989622035752
-0.00248705153450573
-0.0129393506059428
-0.0193542644729711
-0.0206154005452716
-0.0165834672655395
-0.00837790114776404
0.00155818421457787
0.00969749656304982
0.012011577381601
0.00486391039136343
-0.0139155106818819
-0.0440022126489953
-0.0818877083632153
-0.1208139109935
-0.15152957868261
-0.163900773928559
-0.149175000651413
-0.102445189408407
-0.0246725406663603
0.0763986283271265
0.186912703513409
0.289251289964756
0.365644842892323
0.402172211895023
0.392044903982857
0.337211700001981
0.247807266708106
0.139629299650004
0.0304138754699129
-0.0640190843630737
-0.132744530520822
-0.171202046823459
-0.181029244348597
-0.168576969943349
-0.142688618049455
-0.112385618536531
-0.0849946199067363
-0.0650389801479811
-0.0539706123340704
-0.0506119152179766
-0.0520556770160379
-0.0547337511394108
-0.0553927728615817
-0.0517904761340409
-0.043029197948653
-0.0295409711987504
-0.0128037020332275
0.00510170127669558
0.0219764657963802
0.0359285830057573
0.0456694181164406
0.0506573100895426
0.0510940499141913
0.0477979485393904
0.041992792018404
0.0350644654434848
0.0283346544041835
0.0228843539284644
0.019443844117113
0.0183564736198424
0.0196124694518042
0.0229337166817188
0.0278823016966466
0.0339693586888247
0.0407456078942943
0.0478548284593382
0.0550370519542237
0.0620871051376643
0.068794070406072
0.0748927257844793
0.0800504980118294
0.0839017075842293
0.0861242674204733
0.0865316618988858
0.0851389147003864
0.0821705039507286
0.0780043693532773
0.0730692781133278
0.0677250376040993
0.062161262092058
0.0563486853675252
0.0500595673044105
0.0429468913500823
0.0346546471317125
0.0249301692208235
0.0137133877072426
0.00118110292181308
-0.0122651325669168
-0.0260596308345919
-0.0395597034564718
-0.0521379247158851
-0.0632645875984991
-0.0725679123867329
-0.0798629300855557
-0.0851498045905325
-0.0885901872691007
-0.0904675018964963
-0.0911322209318686
-0.0909379007103231
-0.0901822364832009
-0.0890664929866332
-0.0876783941560587
-0.0859996050207652
-0.0839387367853671
-0.0813846082159171
-0.0782646657397588
-0.0745925393664051
-0.0704969742721463
-0.0662290863596206
-0.0621432963424685
-0.0586507945333118
-0.0561559211739764
-0.054992569684146
-0.0553727320674409
-0.0573525132214057
-0.0608198242057202
-0.0655050789159274
-0.0710067503153447
-0.0768188591677704
-0.082356664915565
-0.0869895168502353
-0.0900910184146902
-0.0911084376192308
-0.0896458610627022
-0.0855481268334431
-0.0789609385450038
-0.070336887387087
-0.0603713150487847
-0.0498800036037102
-0.0396519762271084
-0.0303163385725143
-0.0222580733618049
-0.01560542926327
-0.0102866082421017
-0.00612484496069575
-0.00292984212616577
-0.00055632887175718
0.00107920910830939
0.00201946195288473
0.0023120007640327
0.00205848897640901
0.00144569989748876
0.000748287057628627
0.000305510375940908
0.000476734715478316
0.00158044032084709
0.0038280072080252
0.00726976801212914
0.0117660172182755
0.0169855481541732
0.0224314625280712
0.0274960669096097
0.0315424732237058
0.0340021416580999
0.0344764861510499
0.0328350428732357
0.0292992956777234
0.0244893837094566
0.0194053810646134
0.0153226435656686
0.0135939107822187
0.0153659088014086
0.0212427195018712
0.0309612339104127
0.0431680667580508
0.0553890760149866
0.0642655850286322
0.0660979705253627
0.0576762591956562
0.0372846951407708
0.00566731854928241
-0.0333262032301049
-0.0727015061650269
-0.10310012615424
-0.114444343044754
-0.0982400031301423
-0.0500601162657729
0.028459380086235
0.128799376320582
0.236395173740699
0.333193386425935
0.401449012672937
0.42780885735249
0.406528572128075
0.340866121322977
0.242236266653368
0.127401937736452
0.014561961795646
-0.0805395707764476
-0.147482691568109
-0.182444058456533
-0.187819745345953
-0.17057712452868
-0.139954496374989
-0.105161662099079
-0.0735995760003964
-0.0498792256940726
-0.0356660668108477
-0.0301814337930322
-0.0310872904431068
-0.0354601693443905
-0.0406098099030944
-0.0445977892905783
-0.0464246227255513
-0.0459404982564276
-0.0435800753653585
-0.0400348929363542
-0.0359654584787823
-0.0318191041698079
-0.0277705792097251
-0.0237637451880249
-0.0196158058390704
-0.0151409540924029
-0.0102509020391472
-0.00500191463728357
0.00041708423311496
0.00573873011368843
0.0106908031851634
0.0150687227427429
0.0187873890877412
0.021896443781996
0.024556342482391
0.0269873845400362
0.0294079895161937
0.0319758759267612
0.0347468224784679
0.0376666248104878
0.0406018009693094
0.0433976797456354
0.0459436933874742
0.0482274266575843
0.050361108966432
0.0525658605309793
0.0551100419427795
0.0582174057609281
0.0619727008464633
0.066249729085085
0.0706795142571419
0.0746710031917025
0.077486632908607
0.0783574929210659
0.0766103822955611
0.0717813333445857
0.0636986172473265
0.0525223270956681
0.0387321468505291
0.0230672433949644
0.00643466991679709
-0.0101960289058627
-0.0258994661778919
-0.0398898442952577
-0.0515904229696458
-0.0606684760436497
-0.0670390615688034
-0.0708455292105813
-0.0724211611140787
-0.0722358037603585
-0.0708355969558023
-0.0687834138207771
-0.0666017998424048
-0.0647201056074502
-0.0634345963107502
-0.0628914654305591
-0.0630927627646548
-0.0639167457335335
-0.0651460024528863
-0.0665006366255961
-0.0676719938334177
-0.068351964191977
-0.0682601887065974
-0.0671767474194233
-0.0649807655299039
-0.0616838657773665
-0.0574453111536863
-0.052561233038316
-0.0474240560269962
-0.0424527501409821
-0.0380074414486408
-0.0343153467365083
-0.0314329757432648
-0.0292529346806071
-0.027548731363722
-0.0260442958752685
-0.0244892294886831
-0.022715950823265
-0.0206617061888532
-0.018356819637093
-0.0158940768862073
-0.0133934102971542
-0.0109707418106953
-0.00871878653760404
-0.00670461257112293
-0.00497880776965325
-0.00358433755659154
-0.00255852930762225
-0.00193033740787294
-0.00171534748430856
-0.00190754714381643
-0.00246989914021706
-0.0033308167695729
-0.00439031833507372
-0.00553194615053412
-0.00663627088785334
-0.00759689563492285
-0.00833861232439782
-0.00883075263334052
-0.00908891759156721
-0.00916557779456991
-0.00913229052178373
-0.00905187904384056
-0.00894074452810003
-0.00873302544348406
-0.00826536453555454
-0.00729437252817676
-0.0055475018206909
-0.00280108274218155
0.001028061919446
0.00580223461356306
0.0111228556474568
0.0163485853127247
0.0206716269241325
0.0232414208005911
0.023318660310316
0.0204333742932467
0.0145146122383268
0.00596575087396372
-0.00432777729671282
-0.0150664503389681
-0.0246892177180186
-0.0316120275879113
-0.0345348466780374
-0.0327790906740491
-0.026597602351593
-0.0173761090950916
-0.00762849397401144
-0.000702387987158505
-0.000167029312580781
-0.00893740127663007
-0.0282775310033558
-0.0569081403269882
-0.0904970071398001
-0.121796917258756
-0.141590730643691
-0.140416864582039
-0.110819114444654
-0.0496415066383496
0.0402599073861497
0.14950494643425
0.263264240834997
0.363889078085326
0.434574669146481
0.463144150628806
0.444904699085915
0.383735237084724
0.291080307821114
0.183166704412301
0.077278573986474
-0.0118645706061663
-0.0747227324860513
-0.10803110917444
-0.114345333031462
-0.100411824744883
-0.0749611577313076
-0.0465367153495667
-0.021830869081975
-0.00478570275091682
0.00351073930133943
0.0042897885627142
0.00019664322392909
-0.00569984828971684
-0.0107471380255456
-0.013248689479871
-0.0126496559051313
-0.00940733827706781
-0.00465168854903049
0.000237121404461125
0.00402315891889176
0.00590179153513048
0.0056357201384826
0.00353727777072064
0.00033224824574756
-0.00304058226364226
-0.00564187113178094
-0.0067131921839609
-0.00579511954354146
-0.00276781535454265
0.00217577199886698
0.00859975618513556
0.0159165655261403
0.0234848942808104
0.0306999212747556
0.0370615337959744
0.0422139856507257
0.0459585445655259
0.0482415462006915
0.0491211271393357
0.0487247410110632
0.0472171010521369
0.0447913021252218
0.0416798491941328
0.0381724708916551
0.0346260992498801
0.031451576793062
0.0290640096889536
0.0277982072563779
0.0278116514242499
0.0290072874252204
0.0310020204344676
0.0331550682411424
0.0346585729359334
0.0346755678789987
0.0324908445572145
0.0276348850415813
0.0199556955772997
0.00963304828845158
-0.00285934599686021
-0.0168317758122273
-0.0314767565199811
-0.045965511113448
-0.0595297961789264
-0.0715262056338552
-0.0814801753528365
-0.0891043166649877
-0.0942921304787523
-0.0970978770642901
-0.0977130749423279
-0.0964422311958832
-0.0936776429713482
-0.0898754161450734
-0.0855320179038493
-0.081154230093581
-0.0772172424059618
-0.0741156858981935
-0.0721174746880357
-0.0713272429021409
-0.0716659209375295
-0.0728781298088934
-0.0745770204069169
-0.0763218987087128
-0.0777104722503305
-0.078464979257208
-0.0784931517884496
-0.0779048957316004
-0.0769725074570647
-0.0760424323172569
-0.0754269496636895
-0.075308813698484
-0.0756835884331504
-0.0763544169548516
-0.0769816231653445
-0.0771703684173635
-0.076563856941668
-0.0749122287847064
-0.0721041564710613
-0.0681619328475043
-0.0632068932005723
-0.0574089765837407
-0.0509413110466052
-0.0439564310893159
-0.0365857517706357
-0.0289538877990276
-0.0212004025805961
-0.0135022728695417
-0.00608504116120659
0.000789445040802792
0.00685852944696426
0.0119043026388748
0.0157942676928552
0.0185064875204071
0.0201307473309887
0.0208422514019915
0.02085737527051
0.0203910800547529
0.0196302631184682
0.0187238224618001
0.0177844346048671
0.0168988460028175
0.016141602431574
0.015582321555839
0.0152795721691029
0.0152641873194761
0.0155195001834516
0.0159643287299038
0.0164465903304683
0.016760339788627
0.0166932403618926
0.0160935833854629
0.0149331936559252
0.0133452490988422
0.0116243367906955
0.010180688162043
0.00944833093711563
0.00976370079783906
0.0112461944590209
0.0137135651616036
0.0166580519467039
0.0193020404056566
0.0207388873880563
0.0201384777146032
0.0169705446884992
0.0111906159309096
0.00334324611446693
-0.00544894752130696
-0.0136267859917344
-0.0194591726721181
-0.0213949495077153
-0.0184459396413883
-0.0105344895055832
0.00127239727617427
0.0147282380267125
0.026642289564054
0.0334084471676063
0.0317858731776195
0.0198196728233474
-0.00227969579860042
-0.031535444545207
-0.0621276487706913
-0.0860192303673203
-0.0943216841636415
-0.0792442738199925
-0.0362585558047196
0.0340648267860215
0.125144377459033
0.224860089623758
0.317535083101595
0.387104063597611
0.420724791565624
0.411852159655368
0.361867605435481
0.279758709082788
0.17994324133718
0.0788943331243303
-0.00846292208378235
-0.0716356592465756
-0.106089063429032
-0.113229966561365
-0.0990989588378105
-0.0723024512624049
-0.0417935741771519
-0.0150200802892907
0.00323092011605219
0.0111843471835538
0.00972163641460028
0.00155277638158702
-0.00980189717089738
-0.0209646212301793
-0.0294014646613121
-0.0337764354915221
-0.0339608516865095
-0.0307802078736396
-0.0256189552750083
-0.0200013353369113
-0.0152421761241284
-0.0122257959579675
-0.011326289209599
-0.0124419512403455
-0.0150998562348321
-0.0185935631159057
-0.022128083031396
-0.0249509854197819
-0.0264543793595475
-0.0262432604936751
-0.0241715299042469
-0.0203438509487975
-0.0150808280611744
-0.0088535547908238
-0.0022012055753497
0.00435608121106126
0.0103986599138366
0.0156676483673967
0.0200867151965295
0.0237406497817365
0.0268232235106775
0.0295724923169712
0.0322074107628811
0.0348773223833333
0.0376345817363201
0.0404314521994396
0.0431307017133051
0.0455191970468271
0.0473240529294841
0.0482361160480431
0.0479415729445487
0.0461601033470272
0.0426901938804029
0.0374585328344295
0.0305591160811624
0.0222630364296689
0.0129894350602385
0.00324110011716803
-0.00648436043129629
-0.0157893323102005
-0.0244482688318638
-0.0324282750130109
-0.0398487007595116
-0.0468955306467172
-0.0537195280598238
-0.0603483256439905
-0.0666405309937233
-0.0723008930156843
-0.0769532144297923
-0.0802432914691825
-0.0819365950652751
-0.0819848972419803
-0.080547612938047
-0.0779627041148972
-0.0746757549635857
-0.0711511321883431
-0.0677918302098725
-0.064883288174242
-0.0625661486697638
-0.0608403032274626
-0.0595977989188352
-0.0586713557924558
-0.0578806510382255
-0.0570668737799709
-0.0561152498321833
-0.0549648926910204
-0.0536035166468533
-0.0520503303164442
-0.050335750979805
-0.0484818035058511
-0.0464808241013796
-0.04427498336756
-0.0417484396053299
-0.0387420372225787
-0.0350885862691437
-0.0306584994098417
-0.0254034517738551
-0.0193828265696389
-0.0127579350582064
-0.00575315648058507
0.0013950939728659
0.00847275352742386
0.015290205762002
0.0216555944663998
0.0273353308134077
0.0320256431853455
0.0353619076459973
0.0369798471800857
0.0366147476872108
0.0342025118871985
0.0299462970013792
0.0243268551753345
0.0180485674193193
0.0119265563946802
0.00673788708447067
0.00307315396142181
0.00122298400741999
0.00112301992854405
0.00237221083355193
0.00432875999653248
0.00626642702099795
0.00755007015455697
0.00778313014644126
0.00689331443061837
0.00514043333292571
0.00304526495907519
0.0012568664289169
0.000395138913829922
0.000910061120738216
0.00298493530962129
0.00649395032739191
0.0110154291072939
0.0158946502840368
0.0203393872009623
0.0235274591300828
0.0247146355362472
0.023340454684462
0.0191268170073626
0.0121572201480652
0.0029248112591424
-0.00766033267095393
-0.0183197940925198
-0.0275316846551125
-0.0337423574675768
-0.0356526370510018
-0.032543463097229
-0.0245845473202135
-0.0130445672071058
-0.000304481445306935
0.0104087536967303
0.0155952687403651
0.0123105189237175
-0.000887758924635115
-0.0230895230278781
-0.0505442983837008
-0.0767818626291801
-0.0934840688461667
-0.0920758903122596
-0.0657955067056427
-0.0118019117187647
0.067255859614602
0.162772408957503
0.261178248214352
0.346365728869985
0.403076088954633
0.420407391529989
0.394462270219119
0.329335889129401
0.236126040448295
0.130261166982672
0.0279457750839737
-0.0572698297978306
-0.116921460198251
-0.14857575713864
-0.155276376960043
-0.143882346166478
-0.12290039635741
-0.100412011371965
-0.0825421276812231
-0.0726929377770143
-0.0715395968892411
-0.0776063948226317
-0.0881510126250451
-0.10008720646852
-0.110740849083839
-0.118321237463936
-0.122078237450391
-0.122193783841754
-0.119504153222371
-0.115156000555044
-0.110278695478409
-0.105730850777822
-0.101955332788614
-0.0989493109312973
-0.0963306839265678
-0.093471573807748
-0.0896692160423565
-0.0843207584913842
-0.0770634243906131
-0.0678500193401579
-0.0569516969612539
-0.0448979212291722
-0.032370258702185
-0.020071844676046
-0.0086016467872553
0.00163934042140679
0.0104976537516917
0.0180733463403234
0.0246844638909734
0.0307921732345396
0.0368977610356134
0.0434326444811814
0.0506627870461947
0.0586249586698991
0.0671118237543098
0.075717558139912
0.083935774887439
0.091278042897406
0.0973741355499899
0.102025942047067
0.105202632892917
0.10698110842147
0.107456554700478
0.106663930863161
0.104545372656287
0.10097264139593
0.0958095879498278
0.0889899993148863
0.0805847696210845
0.0708345034478835
0.0601359995248706
0.0489921858122743
0.0379480339824508
0.0275304597656491
0.0182002148684272
0.0103204463002215
0.00414416204596872
-0.000185911517922443
-0.00263731199409455
-0.00329234086630543
-0.00235010901354792
-0.000118004569677821
0.00300972732402697
0.00658786844974107
0.0101732347407889
0.0133889556036984
0.0159812470529831
0.0178494201337575
0.0190429686305204
0.0197306656993164
0.0201493995278667
0.0205436878246886
0.0211121513556934
0.0219742188060315
0.0231581418403654
0.0246045429093981
0.0261839133340746
0.027728479571444
0.0290704180308317
0.0300716127479638
0.0306364053536552
0.0307095723494058
0.0302648962428506
0.0292892244336312
0.0277705876060688
0.0256998816917654
0.0230852193867928
0.0199662081441729
0.0164174239955168
0.0125417204256774
0.00845837066164134
0.00428717651527408
0.000129646076066901
-0.00394710686548036
-0.00791976305664321
-0.0118144678504195
-0.0157106268487207
-0.0197350401326041
-0.0240366003846127
-0.0287433352822093
-0.0339143964872722
-0.0394997028760976
-0.0453176579006888
-0.0510631822773626
-0.0563546995873515
-0.0608132497422827
-0.0641520621731369
-0.0662534476891285
-0.0672153667161946
-0.0673522507622761
-0.0671399091770513
-0.0671118878408704
-0.0677343765226069
-0.0692914765562545
-0.0718042783927261
-0.0750002626180855
-0.0783448542711694
-0.0811340336816479
-0.0826285270639988
-0.0822014273499355
-0.079474331656107
-0.0744193797510933
-0.0674033490987824
-0.059157956016629
-0.0506805349631079
-0.0430854268291892
-0.0374288391301489
-0.0345285967396513
-0.0348040425984246
-0.0381626538666539
-0.0439517436318294
-0.0509852059819475
-0.0576550813599133
-0.0621358405162428
-0.0626735553919801
-0.0579290203652339
-0.0473259352669686
-0.0313398655518659
-0.0116448017306816
0.0089741822025997
0.027007734903685
0.0389107187844032
0.0420119319486877
0.035478450885422
0.0210911054240602
0.00354989266740053
-0.0099293365118493
-0.010826212354476
0.00877794931439841
0.0539511264912468
0.124876449712435
0.21568108909715
0.314666255671708
0.40614006364009
0.473572832892543
0.503329636516991
0.487964410704183
0.428108994761883
0.332379588585515
0.215332261497204
0.0940955759778749
-0.0153394990689055
-0.101190708828394
-0.157632784725935
-0.184989795456825
-0.188579203954662
-0.17671584122696
-0.158482917816418
-0.141797247993614
-0.132113607392642
-0.131902283043471
-0.140841004002569
-0.156521879928414
-0.175412041740571
-0.193821496722184
-0.208691610949084
-0.218092168979899
-0.221393009623049
-0.219148576945727
-0.212781004100522
-0.204160034913209
-0.19517057433254
-0.187347206206414
-0.181636063514034
-0.178310517243313
-0.177029505609281
-0.177003218717097
-0.17721971738599
-0.176678370264009
-0.174576308210045
-0.170413226541861
-0.164010216532446
-0.155459786749262
-0.145032097598254
-0.133067637374948
-0.119890082307622
-0.105763203976102
-0.090893201660891
-0.0754608077107854
-0.0596649314854437
-0.0437610562801549
-0.0280763968227504
-0.0129894226970091
0.00112173191224514
0.0139432842891232
0.0252836043514102
0.0351115684059871
0.0435622045011306
0.0508983670199566
0.0574314496665027
0.0634217221847326
0.0689843900186001
0.0740232815170372
0.0782116166437002
0.0810353929919612
0.0818983517363892
0.0802639720460858
0.0757979599157513
0.0684785407439684
0.0586499505652684
0.0470034568211793
0.0344880803981812
0.0221765908136815
0.0111233919913339
0.0022432050013354
-0.00377295739461614
-0.00649513131273629
-0.00574480443061309
-0.00155333588191178
0.00588832693964593
0.0162731461783507
0.0292115930613901
0.0442557605781737
0.0609143151975256
0.0786642715857114
0.096969818147958
0.115310704402544
0.13321119645758
0.150260416037214
0.166122608442823
0.180537138405314
0.193303853754376
0.204253073908879
0.213209965143023
0.219965699548594
0.22426023512184
0.225777464095682
0.22415719134339
0.21902810931605
0.210057297112564
0.197006836022401
0.179792545996594
0.158541605791252
0.133637621057096
0.105735728969782
0.0757375745435561
0.0447277426378545
0.0138779184764035
-0.0156718860386705
-0.0429358268112684
-0.0671812650876318
-0.0879838588638999
-0.105233481006251
-0.11909477312638
-0.12992981591788
-0.138198814984094
-0.144363438326076
-0.14881291329079
-0.151818203044431
-0.153511599173895
-0.15389122162642
-0.152848944098945
-0.150212576248223
-0.145790953801438
-0.139417317274113
-0.130988719000656
-0.120492005728508
-0.108004321102263
-0.0936671742776341
-0.0776459950202218
-0.0600896035444025
-0.0411022436137091
-0.0207420782698487
0.000944778797565837
0.0238645033667305
0.0478188951529821
0.072480911230877
0.0974162809151003
0.122150360719298
0.146267726350595
0.169517212685175
0.191884940534353
0.21360726868203
0.235120013169971
0.256958851940986
0.279631580796132
0.303487289428738
0.328613859825627
0.354790787590209
0.381505233835637
0.408020628196503
0.433480445897937
0.457028406034866
0.477923876088464
0.495634265555139
0.509896643374142
0.52074443838859
0.528483377977189
0.53359025406191
0.53651995541142
0.53743857796445
0.535936446582458
0.530806151036165
0.519992585914093
0.500816037824314
0.470515463344966
0.427063939248812
0.370103002626389
0.301755604534224
0.227029322140962
0.153542279984331
0.0904251930092384
0.0464698896992979
0.0278536763902658
0.0359915509913488
0.0661757252903184
0.107581923383145
0.144916583064818
0.16149929122934
0.14307676104027
0.0813457270974986
-0.023836038947052
-0.164222642962035
-0.32501559203509
-0.488211097440787
-0.636482078947743
-0.756545601913539
-0.841232305693427
-0.889930499418101
-0.907547731871198
-0.902483080189255
-0.884259462600067
-0.861417843304554
-0.84008355031738
-0.82337258486772
-0.811585397848642
-0.802971737978206
-0.794763277382231
-0.784174876393179
-0.769155960471621
-0.748785509231672
-0.723307467187583
-0.693883686302251
-0.662191433364471
-0.629998510889749
-0.598812771943442
-0.569653403084123
-0.542956432768226
-0.51860554927558
-0.496059549814757
-0.474533804473726
-0.453194664667878
-0.431335126749014
-0.408504002444286
-0.384564760715006
-0.359677292381789
-0.334219478291076
-0.308676459992082
-0.283522290302034
-0.259115727094878
-0.235631642222558
-0.213040159769599
-0.19112837760987
-0.169551064847819
-0.147900676432314
-0.125787312624234
-0.102909634734925
-0.0790942540754067
-0.0542943151759224
-0.028554874810155
-0.00195932137520152
0.025426915186711
0.0535944717866989
0.0825917661354696
0.112490894965275
0.143339068822354
0.1751202866456
0.207740888260171
0.241042431090233
0.274837244124069
0.308949440801058
0.343235810885699
0.377571829136919
0.411811195517701
0.445739976303826
0.479042578651459
0.511291056376361
0.541967207991941
0.570517412536085
0.596421685079613
0.619248605512118
0.638676576085966
0.654477045834701
0.666464931304901
0.674430536019115
0.678079514300324
0.677009882083377
0.670738399121167
0.658766774857079
0.64066950358834
0.616186964788444
0.58530716867939
0.548319389432404
0.505832064599874
0.45875906771522
0.408278525259582
0.355760765321618
0.302663812274317
0.250407582964854
0.200246479961711
0.153159323774545
0.109775078175903
0.070353301948807
0.0348275434501275
0.00289810939052237
-0.025853534338089
-0.0518534276490118
-0.0754438123431326
-0.0968266880586228
-0.116052031854638
-0.133045955845675
-0.1476623775414
-0.159744209057102
-0.16918697111192
-0.175996357403342
-0.18032815129136
-0.182504816127136
-0.183009785589284
-0.182454906174263
-0.181507563210681
-0.180771215700105
-0.180634861348979
-0.181124231140152
-0.181793253351382
-0.181695634037239
-0.179470052767148
-0.173545404088154
-0.162429522708254
-0.145011141036278
-0.120795300365853
-0.0900002220975084
-0.0534646683332026
-0.0123584158883384
0.0322476375390723
0.0798380666935113
0.130797480458998
0.186513379473444
0.249146816792219
0.32105623584763
0.403968058187705
0.498090953505847
0.601422281817219
0.70947524705386
0.815570464946755
0.911698054044986
0.989790585107704
1.04310839804823
1.06739045983198
1.06148864921851
1.02734927107231
0.96937941935743
0.893390078499824
0.80540125042481
0.71059827122719
0.612649645249103
0.513477463723773
0.413454973488483
0.311912851435312
0.207778068591262
0.100162232982485
-0.0112388023428667
-0.126001351150097
-0.243086280157227
-0.361151555585864
-0.478963058474435
-0.595775637704712
-0.711562514378064
-0.827003218134491
-0.94318388225467
-1.06102005391245
-1.1804883173397
-1.2998347407018
-1.41498415383563
-1.51938471378766
-1.60448158151888
-1.66091033924451
-1.6803248013293
-1.65755159700764
-1.59256610034385
-1.49169107259905
-1.36749018758223
-1.23709354960918
-1.11912671910859
-1.02989950427494
-0.979849986636735
-0.971261888329691
-0.997937717931346
-1.04692602147209
-1.10177763888445
-1.14637164881163
-1.1682628900041
-1.16076411878383
-1.12343935513599
-1.0611511558187
-0.982134594229112
-0.895715565381868
-0.810255933115261
-0.731732446333406
-0.663116043203426
-0.604499288592769
-0.55377232753334
-0.507578139313053
-0.462279980275483
-0.414740069841446
-0.362809711622187
-0.305520812753946
-0.243022396300313
-0.176333736327948
-0.107001122606787
-0.0367415859546417
0.0328687236065269
0.100632544484131
0.165882004460528
0.22853698816871
0.289082033238738
0.348484699284795
0.408075174491526
0.469398551684574
0.534054948079874
0.603552257506982
0.679192763166867
0.761998647177596
0.852669253264406
0.951557841299317
1.05864758437044
1.17350042217849
1.29516631365232
1.42207384131793
1.55195057798513
1.68182525190096
1.80814937913908
1.92705124587553
2.03469608281051
2.1276788421802
2.20334792752351
2.25997216210314
2.29671031457837
2.31339652759809
2.31020068893906
2.28725573720111
2.24435623935372
2.18081711095104
2.09554399230594
1.98731971400837
1.85525881589544
1.69932845437876
1.52079930156996
1.3224983820553
1.10878684623748
0.885253979993363
0.658182060953515
0.433887347803239
0.218071063317228
0.0153057092746261
-0.171262380344476
-0.339969772566434
-0.490474604823688
-0.623435136619789
-0.740109521629034
-0.841960065561358
-0.930324360978904
-1.00619003854368
-1.07009357499953
-1.12214774771226
-1.16217596280856
-1.18990637331277
-1.2051719544336
-1.20807034762071
-1.199044955289
-1.17885951068538
-1.14846386800705
-1.10878160314319
-1.06047089103765
-1.00371752352687
-0.938124413296416
-0.862759340460504
-0.776391758350225
-0.677892239508278
-0.566714012134235
-0.44334563882976
-0.309614362358965
-0.168730819939116
-0.0250108145287344
0.116713267577287
0.251899498737047
0.37717407681751
0.491099467383613
0.594643151683813
0.691188609000393
0.786015356218153
0.885291444471988
0.994732434769487
1.11816684025742
1.25630147904729
1.40597927340417
1.56014423870923
1.70858416968389
1.83935082631897
1.94059764434567
2.00245512542409
2.01852267784308
1.98662950776791
1.90869982330349
1.78978942110396
1.63656825789257
1.45565590085287
1.25224497522711
1.02936091697251
0.787926927187054
0.527589168406816
0.248069277491197
-0.0493179508136041
-0.36039852718523
-0.677503831685156
-0.989707511112255
-1.28396749730646
-1.54697823136207
-1.76734369367181
-1.93756745298367
-2.0553683986024
-2.12399225398076
-2.15145955214013
-2.14897292204172
-2.12889870676675
-2.10278803382954
-2.07982123890846
-2.06589902493355
-2.06342650513808
-2.07169252117137
-2.08766301563277
-2.1069859919942
-2.12503056941968
-2.13782897207485
-2.14283437266643
-2.13943468428428
-2.12917073258034
-2.11560678606708
-2.10380941969787
-2.09942421705974
-2.10740796509769
-2.13057187157041
-2.16819790901815
-2.21507133426423
-2.26128815791999
-2.29311414997039
-2.29497989993972
-2.25241496558094
-2.15541110212535
-2.00144916495657
-1.79732781913243
-1.55907726449264
-1.30965372644831
-1.07472187693752
-0.877462718954657
-0.733745722391919
-0.648977463461916
-0.617460870886197
-0.624346281766073
-0.649507669846046
-0.672185652543095
-0.675143149962391
-0.647375504791364
-0.584958298546408
-0.490179771732482
-0.36950641862119
-0.231100393689854
-0.0825678970142302
0.0705765470397207
0.225522184835136
0.381911202038759
0.540969901979827
0.704349266723578
0.873005409225314
1.04638980394092
1.2221035359255
1.39603387650271
1.56288590807721
1.71696608317968
1.85305104392051
1.9671728530607
2.0571824278525
2.12301525032742
2.16664586496654
2.19175291359116
2.20313263367232
2.20592146715296
2.20472563999889
2.20279203170894
2.20137070180194
2.19940440149045
2.19363309374334
2.17912799165899
2.15018272467844
2.10140735413991
2.02881519973001
1.93068220026341
1.8080034488324
1.66446168158099
1.50592851829977
1.33961029024404
1.17301259089734
1.01292892878776
0.864649505161763
0.731525419156705
0.614926585040771
0.514538694273183
0.428884880968695
0.355931328416249
0.293637322979263
0.240344413080402
0.194961106285851
0.15695978350677
0.126236489128837
0.10289664281617
0.0870337976845091
0.0785595978398056
0.0771142393108998
0.0820540362252373
0.0924975775992028
0.10741098704609
0.125710270802198
0.146358194660987
0.168447989715005
0.191287389838752
0.214500230025639
0.238147490273434
0.262855523436078
0.289931923992263
0.321434988477016
0.360141959912846
0.409359051680762
0.472545716620826
0.552770923835538
0.65206391322986
0.770766721896732
0.9070338472097
1.05662711607366
1.21310341507961
1.36840950700067
1.51381437490554
1.64103757494458
1.74337668041151
1.81662134761704
1.85959062636576
1.87423164612534
1.86532163575111
1.83987268689777
1.80633557334396
1.77365702722544
1.75020309193451
1.74255496677856
1.75423011418475
1.78447156359746
1.82734916202372
1.87148002494273
1.90065458130991
1.8955215103639
1.83624691197256
1.7057711863816
1.49303092243683
1.19539848417409
0.819700653656112
0.381517267797612
-0.097068297109113
-0.590676859033614
-1.07402012277964
-1.52478388271754
-1.92561382142467
-2.2651231384088
-2.53805445036808
-2.74480999627128
-2.89054888194231
-2.98399570994433
-3.03606544414522
-3.05841345413401
-3.06205618028767
-3.05623732881028
-3.04770145234862
-3.04047253331529
-3.03613706609521
-3.03452813992429
-3.03462645868755
-3.03545442075267
-3.0367476435805
-3.03924197345338
-3.04450258455938
-3.05432922514553
-3.06987839337865
-3.09072785654188
-3.11415082000076
-3.13484998237023
-3.14531874662683
-3.13685540031172
-3.10108131314186
-3.031648667026
-2.92572031403264
-2.78481383915096
-2.61474729151049
-2.42467718729518
-2.22549126465864
-2.02799220879257
-1.84131135050525
-1.67184625282265
-1.522814581311
-1.39434189677203
-1.28389247282376
-1.18682878184825
-1.09695466547637
-1.00702637190876
-0.909328451311818
-0.796442926170848
-0.662277202365016
-0.503280032128391
-0.319600244660748
-0.115797909531501
0.099296070085118
0.313791861021722
0.514903159976541
0.691575228545028
0.836856367843901
0.949289389352152
1.03286993673717
1.09558553403065
1.14702494402624
1.19582261399721
1.24767905388645
1.30443097921888
1.36427479164472
1.42290782640696
1.47513588030127
1.51644593268344
1.54414646147961
1.55787164666315
1.55945030424686
1.55229443496574
1.54053878239716
1.52816491441491
1.51829254919735
1.51274503396628
1.51192004591009
1.51493719578611
1.51999760098452
1.52487451594038
1.52745177690213
1.52623040377138
1.520728144651
1.51170156175205
1.50112947013276
1.49191674136489
1.48731449100203
1.49010776293375
1.50168877345968
1.52119794688682
1.5449554147771
1.56640026364475
1.57668773337498
1.56596409877011
1.52516374947898
1.44799356160406
1.33264282348768
1.18274138204012
1.00722211025908
0.81901655422559
0.632849780054337
0.462675974439344
0.319392422929967
0.209350724925764
0.13392016096436
0.0900669213097148
0.071684120408904
0.071280307108951
0.0816191243508055
0.0969891238142573
0.113928040875101
0.13137251757882
0.150317975796765
0.173149582137189
0.202841039388499
0.242203598009642
0.29331129637241
0.357161461028545
0.433575478070649
0.521302317298354
0.618253155398621
0.721782618436473
0.828948853360754
0.936715529406752
1.04208493563526
1.14217323223853
1.23426290752904
1.31588234676005
1.38495143996875
1.43999994661127
1.48043260784847
1.50679130246937
1.5209437822427
1.52610981018057
1.52663306899958
1.52743690573559
1.53316657968522
1.54710847163719
1.57006718517081
1.59944966846229
1.62882577257583
1.6481869084555
1.64500222944726
1.60598971879907
1.51931680739102
1.37678092840862
1.17545920618968
0.918403066434122
0.614186333318786
0.275432656938669
-0.0832596620047286
-0.447426845837926
-0.804370907195285
-1.14403461630169
-1.45913538776579
-1.74479561729009
-1.99798846432206
-2.21706745137848
-2.40151655928359
-2.55190662128525
-2.66993500396928
-2.7583984800479
-2.82099649715724
-2.86194072283567
-2.88542081746525
-2.89503395393579
-2.89331680320526
-2.88150576064882
-2.85959191909623
-2.82665725021977
-2.78140697763408
-2.72276386371977
-2.65037317713057
-2.56489642126859
-2.46804275355842
-2.36236441114655
-2.25089248734048
-2.13670953636637
-2.02255768552352
-1.91056321400267
-1.80211696746973
-1.69790362933732
-1.59804758555753
-1.50233697449468
-1.41047938954799
-1.32233017656639
-1.23803573091477
-1.15805543636379
-1.08305255611953
-1.01366945570462
-0.950233437734262
-0.892471971919145
-0.839327604795196
-0.78894223189394
-0.738842555725417
-0.686318403275848
-0.628940255657195
-0.565112285239122
-0.494523667782819
-0.418364113008609
-0.339205288369927
-0.260505551707554
-0.185772728743735
-0.117519158950702
-0.056238967588829
0.000310208237683206
0.0572516616832916
0.121971684425853
0.202702815005195
0.306489187919154
0.436951516843443
0.592441121693427
0.765198677843517
0.9419693989769
1.10617443565606
1.2412651473824
1.33444122328822
1.3796877668458
1.37921396771057
1.34284153763972
1.28552793496907
1.22377773560923
1.17198649467105
1.13968395761766
1.13026231159513
1.14127188276672
1.16593673565915
1.19530262202206
1.22039836123285
1.23392639361668
1.23122763590812
1.21050480990279
1.17246320298249
1.11960761403848
1.05543360772682
0.983699931732078
0.907891401980474
0.830901927085468
0.754910821895647
0.681401548341167
0.611268766790459
0.544964343936386
0.482645599372273
0.424308729422893
0.369904636072649
0.319434541173507
0.273017376305641
0.230921594154551
0.193558173463908
0.161432854558826
0.135059853355702
0.114853264747598
0.101025884087146
0.0935225603145311
0.0919992284891135
0.0958455521586605
0.104243469386204
0.116248326390831
0.130874012631935
0.147167893390427
0.164273791872025
0.181487726779619
0.198306888156721
0.214467963614204
0.229971594598757
0.245087023248176
0.260322161152577
0.276342333168616
0.293834858565956
0.313336881824627
0.335058233011792
0.35874102509257
0.383606052463943
0.408432147054932
0.431787725273463
0.452392257627961
0.469547031216261
0.483545230413519
0.495950241015459
0.509629700141401
0.52846854058722
0.556755452068562
0.598320961263318
0.655579823121094
0.728682772169814
0.814996234610322
0.909083439338368
1.00325604885832
1.08863057095598
1.1564966793011
1.19971523135437
1.21383741056171
1.19769318516196
1.15333137527348
1.08536112909206
0.999887200749178
0.903310636408412
0.801270830321721
0.69793881039957
0.595755346314649
0.495580877442241
0.397129543189636
0.299516694254892
0.201755679833842
0.103087161214032
0.00309972346324862
-0.0983231514839407
-0.201148242683472
-0.30534072025863
-0.410943853149688
-0.518050102877499
-0.626665177836883
-0.7365090443274
-0.846821394139531
-0.956235686667118
-1.06276700177029
-1.16393495940341
-1.25701194881349
-1.33935155130808
-1.40872944063783
-1.46363045216859
-1.50343113724863
-1.52844444384956
-1.53981569250312
-1.53929160589543
-1.52891401219111
-1.5107008842902
-1.48637258009674
-1.45717175677594
-1.42380820021799
-1.386526715276
-1.34525937946976
-1.2998066504443
-1.24999968287396
-1.19581326318286
-1.13741645258115
-1.07516971430334
-1.00959672827317
-0.941359374632527
-0.871244540956156
-0.80015213347144
-0.729068775747473
-0.659013854746106
-0.590946992749076
-0.525636557107079
-0.463510478893108
-0.40452744349424
-0.348104852254653
-0.293128792213946
-0.238064516407213
-0.181178513096
-0.120862349168116
-0.0560176332809898
0.0135657210015932
0.0869260407900458
0.161843783843919
0.235049362086409
0.302774343220763
0.361608559823679
0.409524486178621
0.446840471202349
0.476835823024957
0.505732873806391
0.541857806337622
0.593987068362926
0.669136438987192
0.770284989699643
0.894671124172226
1.03327812574808
1.17189056504111
1.29367368653664
1.38273200517921
1.42772685850212
1.42453360273907
1.37715905255682
1.29665614105428
1.19838781246656
1.09847286844749
1.01041553102055
0.942748662229461
0.898122386290253
0.873816643485908
0.863293488281595
0.858218748490154
0.850391395133762
0.833175051099854
0.802244398471635
0.755664970661426
0.693476887349287
0.617031750421466
0.528328662490372
0.429524455417416
0.322693376062018
0.20981963311346
0.0929382856699255
-0.0256972846930397
-0.143539259526719
-0.25783350291358
-0.365880920816963
-0.465424642225051
-0.555074147084743
-0.634650063785836
-0.705331107100842
-0.769520533991347
-0.830415083070322
-0.891331297156938
-0.954908927660231
-1.02236318735858
-1.09297817491573
-1.16399758950123
-1.23097594502367
-1.28853571175003
-1.33136970642261
-1.35525902821934
-1.35786711621993
-1.33913361357574
-1.30120787428815
-1.24798041649585
-1.18435044584155
-1.11540223668949
-1.04566018410666
-0.978552633640158
-0.916146679338263
-0.85914843433075
-0.807120084879994
-0.758842906913428
-0.712741399865963
-0.667282255954669
-0.621282932667296
-0.57409745587951
-0.525671104061686
-0.476469434944172
-0.427303806646479
-0.379094168167924
-0.332616290057806
-0.288274414704518
-0.24593614650214
-0.204866480493361
-0.163787310474476
-0.121062757576437
-0.0749837458565618
-0.0241071664649972
0.0324104839827071
0.0945582667777048
0.161362443589166
0.230959094457393
0.300837783665312
0.368211092325938
0.430440693358197
0.485434271394056
0.531929322985417
0.56960948210448
0.599043830134293
0.621477120739793
0.63852324342396
0.651831906664871
0.662804442023138
0.672416390359459
0.681166984807627
0.689140103196204
0.696139308486206
0.701847104629262
0.705956053496354
0.708236145400758
0.708535018466976
0.706733840041812
0.702688932400685
0.696186547726069
0.686935238608292
0.674610857912624
0.658948135462617
0.639852116913328
0.617496197855184
0.592377409414817
0.565305090855708
0.537310330283924
0.50948686005256
0.482798595820749
0.457897652189526
0.434989764733298
0.413773796290689
0.393469902481048
0.372930688046808
0.350808320670706
0.325744361450221
0.296558098937887
0.262416521990586
0.222967603963787
0.178418508648728
0.129546852897443
0.0776378631582379
0.0243416722158958
-0.0285433836638658
-0.0793289018000907
-0.126679178125606
-0.169777971500138
-0.208373218190447
-0.242677915869677
-0.273140070830934
-0.300136529818063
-0.323673841484669
-0.343175434740554
-0.357406573955025
-0.364558362286247
-0.362485972553317
-0.349069014100747
-0.322638427149139
-0.282404950709428
-0.228823367937649
-0.163819645493474
-0.0907989519620697
-0.0143637226148217
0.0602870448280158
0.128243305959824
0.18594590231211
0.232233036069278
0.269106516754393
0.301933234494978
0.338864238987082
0.389406711677851
0.462298634086762
0.563075973439012
0.691925248039037
0.842487405941426
1.00214288856241
1.15395672630933
1.27998118338787
1.36514953900743
1.40071773815207
1.38625804195592
1.32960963073934
1.24481703990854
1.14869661648827
1.05703438209224
0.981429262926755
0.927494667804732
0.89466233634338
0.87737291960315
0.867129929274369
0.854792742544245
0.832559339922076
0.795271566677193
0.740900373840321
0.67028019700697
0.586311686702994
0.492916293954183
0.394016248650418
0.292755220130182
0.191085116948785
0.0897380172874016
-0.0114926722787131
-0.11329365847492
-0.216341155822553
-0.320907691291535
-0.426656649155838
-0.532654675042393
-0.637567664250646
-0.739962248261717
-0.83861888700249
-0.932765564056241
-1.02216038302839
-1.10699326221049
-1.18763303640166
-1.26429229255144
-1.33670510062367
-1.40391853276872
-1.46428825308512
-1.51572782158528
-1.55618913439737
-1.58427371779843
-1.59982088261926
-1.6042994094899
-1.60084890444954
-1.59388663946283
-1.58831230986365
-1.58846906212143
-1.59710598388389
-1.61461034548136
-1.6387333258699
-1.66492023199022
-1.68719218131887
-1.69936555753115
-1.69630467103437
-1.67490939985464
-1.63462371581938
-1.57738048932722
-1.50704268598706
-1.4285209271722
-1.34680157683443
-1.26610055441441
-1.18929516374228
-1.11770810997445
-1.05123408590857
-0.98872233752397
-0.928484642463814
-0.868799331724132
-0.808310111601993
-0.746252490883032
-0.682481467402715
-0.617325165929527
-0.551332741237721
-0.485000615195961
-0.418552775932246
-0.351833723017725
-0.284346736274843
-0.215429381930015
-0.144515432548627
-0.0714098228392728
0.00349681379487215
0.0791379900520717
0.153849762286408
0.225619922133943
0.292454414294354
0.352768222499184
0.405703736163655
0.45130182211249
0.490487407540215
0.524879891830142
0.556488009668741
0.587373050508384
0.619351857511083
0.653781251068799
0.691442533194788
0.732529398016341
0.776725846441511
0.823347146909609
0.871515038817987
0.920340986209193
0.969087107394481
1.01727077735894
1.06469097518398
1.11137813132485
1.15748634785312
1.20315310559744
1.24835739825611
1.29281305762569
1.33592760977987
1.37683755966785
1.41451371297764
1.4479213526075
1.47620904237298
1.49888270611568
1.51591364303732
1.52774184510438
1.53516006841668
1.53908703468545
1.54026238125643
1.53892495274085
1.53455625999727
1.52576587579379
1.51036743577262
1.48565608881291
1.44885547370565
1.39765664124816
1.33073878355059
1.24816145069509
1.1515476965964
1.04401712181765
0.929866014389811
0.814031495115024
0.701414676325424
0.596162964754595
0.501023379870286
0.416887609173911
0.342651665204094
0.275485651650286
0.211539735799582
0.147015289872745
0.0794273837976653
0.00879159466667369
-0.0615916024178258
-0.125067333699986
-0.17246797871311
-0.1938562781736
-0.180906599069829
-0.129413588191729
-0.0412496156098855
0.0749023512309772
0.20447265506043
0.329572531082823
0.432675249208295
0.500471067206483
0.526816059469208
0.513913025789628
0.471397160376694
0.413658059709326
0.356249857534369
0.312432072589126
0.290717450318601
0.293892237206033
0.319491649706459
0.361323896769035
0.411447579143425
0.462033959979193
0.506718233268765
0.541268722165123
0.563611622312861
0.573399375539782
0.571374058291662
0.558750413149794
0.53676144053286
0.506420061792738
0.468478056670081
0.423513432578333
0.372057320598426
0.314687364737012
0.252051518516771
0.184818620431159
0.113572307672776
0.0386815356131507
-0.0398068254888877
-0.122212773854138
-0.2091860050236
-0.301587711288798
-0.400304626180838
-0.506023295435167
-0.619011185979223
-0.738956738933175
-0.864903456724957
-0.995287489527892
-1.12806847648222
-1.26092628776983
-1.39147882650779
-1.5174720714244
-1.63691286965385
-1.74814175362585
-1.84985613434779
-1.94109664842726
-2.02121612747896
-2.08985827874983
-2.14696621225295
-2.1928208096162
-2.2280931966215
-2.25389112497572
-2.27177631421537
-2.28372361479309
-2.2919920509818
-2.2988915696917
-2.30645570735437
-2.31606057769645
-2.32805671041099
-2.34149646715493
-2.35404032421422
-2.36210552358745
-2.36127969572403
-2.34696558211336
-2.31516289178801
-2.26324524095724
-2.19056816379302
-2.09875674883432
-1.99157224082926
-1.87434676557488
-1.75309251356403
-1.63349656986302
-1.52004904451455
-1.41549574634122
-1.32069400162851
-1.23484276832488
-1.15598536130721
-1.08164103673772
-1.00941141599454
-0.937438816689023
-0.864653616975566
-0.790804232580769
-0.716301125090804
-0.641935710646425
-0.568557793226438
-0.496793953516607
-0.426860428693077
-0.358490551248125
-0.290975981313053
-0.223303570494511
-0.154347360714069
-0.0830625202765195
-0.00863785783945985
0.0694173632151554
0.15126547994147
0.236814508625908
0.3258555207252
0.418221444600049
0.513920471816341
0.613206997220823
0.716561145594486
0.824557616563093
0.937631637006659
1.05578841113271
1.17832681126171
1.30364809360488
1.42920860086108
1.55165653649027
1.66715609773206
1.77185037532209
1.86237471775453
1.93632468033501
1.9925974529185
2.03154491986485
2.05490104714039
2.06548642674404
2.06674419801801
2.06220383323097
2.05498431701165
2.04743236771503
2.04095304685092
2.03604274365914
2.03249087175921
2.02968573396397
2.02694597988043
2.02380162879888
2.02016483811114
2.01635631325938
2.01298382900583
2.01070009288969
2.00989377190753
2.01038585941999
2.01120986840617
2.01054565202142
2.00585214341604
1.99420636631886
1.97281075436561
1.93958752504623
1.89374848798163
1.83621967085734
1.7698148377617
1.69908799907175
1.62985041802591
1.56840888727088
1.52065326913897
1.49116429545832
1.48250978366829
1.49485943781702
1.52599695894707
1.57174748573851
1.62676074655435
1.685505324701
1.74326651561771
1.79692091126857
1.84528686640397
1.88892043970187
1.92934514061254
1.96785961998291
2.00421851056914
2.03557091586456
2.0560261736071
2.05708728182686
2.02897225087586
1.9625848067394
1.85167064356862
1.69458082185429
1.49511788112133
1.26217295758513
1.00821342426612
0.747025304996244
0.491315575759897
0.250764822771056
0.0309249077923751
-0.166917756836397
-0.345045852239803
-0.508086351441219
-0.661624269448108
-0.810974291535278
-0.96030928301733
-1.1122106550755
-1.26759901933113
-1.42593503517393
-1.58555263601712
-1.74400549672385
-1.89836186408037
-2.04544034180719
-2.18201441167033
-2.30502553651311
-2.41183802030238
-2.5005377369412
-2.57022597761292
-2.6212206785228
-2.6550831694561
-2.67443801506303
-2.68261501668938
-2.68318703008255
-2.67949593762463
-2.67425545862317
-2.66929897872813
-2.66550869190323
-2.66292579389069
-2.66100741649604
-2.65897016674445
-2.65614584820597
-2.65227333106862
-2.64766127320121
-2.64317823493475
-2.64005760348118
-2.63954136776619
-2.64242415756009
-2.64859021192789
-2.65665300093727
-2.66380247869825
-2.66593374372367
-2.6580743971436
-2.63505544812237
-2.59230019188073
-2.52656087190437
-2.43643637221448
-2.32256420412009
-2.18747860892121
-2.03521856993305
-1.87080881402829
-1.69971624058399
-1.52734287076118
-1.35859484665869
-1.19756285354074
-1.04733545249268
-0.909939965631904
-0.786387823255276
-0.676799725871691
-0.58058478768063
-0.496641748316327
-0.423553093724787
-0.359756117479442
-0.303679569465954
-0.253824601298962
-0.208765803460268
-0.167068257134329
-0.127146617169247
-0.0871143426261798
-0.0446863309751781
0.00279201319063354
0.0581291619772333
0.123874019768928
0.201760360674372
0.292120131356111
0.393410055743985
0.502007754726123
0.61240818778422
0.717871860527139
0.811459764189677
0.887280021601168
0.941698490855872
0.97423920372384
0.987932481812039
0.988973382821948
0.985714598003194
0.987182458396797
1.00141968690696
1.03400068279132
1.08702882509945
1.15881220475249
1.24425074406637
1.33580938362764
1.42484745233049
1.50303392597197
1.5635901798207
1.60215956474892
1.61719824788597
1.60988581655355
1.58363451765664
1.54332449601707
1.49441856801919
1.44211362244736
1.39065816637814
1.34291473667876
1.30019453112883
1.26234984787362
1.22807184096288
1.19530965352419
1.16171862840742
1.12506362682455
1.08353045037652
1.03592026862067
0.98172385269594
0.921096909964186
0.854770947406285
0.783926766832154
0.710043158690291
0.634727448160261
0.559534383716077
0.485778680875203
0.41435322654906
0.345587431061342
0.279201497463113
0.214406346935031
0.15016315290024
0.0855694900427162
0.0202943951909039
-0.0450501041084286
-0.108718736941353
-0.167898464151125
-0.219025306876275
-0.258274716055366
-0.282108246510158
-0.287754270180568
-0.273524732641682
-0.238923228337276
-0.184566764915656
-0.11199194772714
-0.023427901125353
0.078395257394565
0.190357765692933
0.308974106569819
0.430370336144319
0.550290059604646
0.664203363408013
0.767566013309509
0.856243444654303
0.927075798281986
0.978507517044617
1.01114912521031
1.02810511964863
1.03490191006626
1.038883968849
1.04802803504848
1.0692707043138
1.10663447337252
1.15960682601388
1.22230086317162
1.28384785736956
1.33021465342999
1.34722897904796
1.32414950064408
1.25681939347973
1.1494491960987
1.01442031602689
0.870075546348919
0.737065254688325
0.634229532521833
0.575071501322755
0.565613793873737
0.603969754688051
0.681492667908973
0.78502541927431
0.899611704123532
1.01104681085932
1.10780471731418
1.18210910796054
1.23014083554574
1.25154526450807
1.2485059973157
1.22468069542952
1.18424729591287
1.1312078276184
1.06898978991228
1.0003077238997
0.927205124626026
0.851183101722151
0.773336761226263
0.694455113181447
0.615072673192901
0.535476911613451
0.455685498943399
0.375422112591771
0.294129049662473
0.211044307423709
0.12534611106974
0.0363447438252951
-0.0563175811834075
-0.15251507732067
-0.25159264811387
-0.352454740268228
-0.453769910601631
-0.554235174229206
-0.65283014877232
-0.74899313193906
-0.842668729631503
-0.934215495939204
-1.02420996463468
-1.11321171313821
-1.20155175162447
-1.28919006735869
-1.37567082021184
-1.46017956728785
-1.54167512321915
-1.61904810410286
-1.69126222175446
-1.75745138286234
-1.81696080460156
-1.86933744822134
-1.91429831676334
-1.95171764121491
-1.98165682266495
-2.00442406792585
-2.02062467333621
-2.03116570950948
-2.03720218148869
-2.04003659635692
-2.04099772202984
-2.04132480524443
-2.04207451056429
-2.04405551860045
-2.04778600448268
-2.05346598573488
-2.06096061941438
-2.06979971991623
-2.0792085979193
-2.08819047504558
-2.09567674922659
-2.10074632336024
-2.10289076601914
-2.10227381714553
-2.09991024672086
-2.09768000409593
-2.09810716884721
-2.10387328286566
-2.11709818709864
-2.13849730469296
-2.16659377277559
-2.19720417426081
-2.22340671783824
-2.23612825021952
-2.22535498304014
-2.18180505229375
-2.09874215688382
-1.9735123580979
-1.80839730355054
-1.61051303145572
-1.39071515997941
-1.16173235890472
-0.93596303889836
-0.72346820113163
-0.530633951773256
-0.359767652075172
-0.209609910040527
-0.0765058142212173
0.0441413349508161
0.156511157442205
0.263395387616888
0.365769182659145
0.462900533782026
0.552870579942638
0.633324601382566
0.702275872106337
0.758807878440157
0.803555386910902
0.838897517808723
0.868852958787044
0.898705229857193
0.934405347514131
0.981819001065662
1.045907048644
1.1299385976174
1.23483897340886
1.35878583325055
1.49717337835711
1.64302865797311
1.78787159952341
1.92289594606628
2.04025803267334
2.13421793447121
2.201892393975
2.24345935024209
2.26179080407909
2.2616421222679
2.24863447460912
2.22829472865364
2.205361865543
2.18345855970505
2.16510176576592
2.1519257235079
2.14494150723945
2.14466917829622
2.15104478199945
2.16310393799421
2.178547113973
2.19336759335278
2.20174603241994
2.19637230999981
2.16925070948257
2.11290235021114
2.02173956365885
1.89329785680863
1.7290103795414
1.53430865226259
1.31800656680624
1.09111652890529
0.86538766257049
0.65188728697292
0.459852650099808
0.295873694594647
0.163332053917861
0.06199633961207
-0.0122414349248845
-0.0673741211589558
-0.114819903664871
-0.168274164916591
-0.241772566479132
-0.347109720575604
-0.491051352584549
-0.673001684743494
-0.883843125251379
-1.10650729853902
-1.31847005392315
-1.49585096834998
-1.61827835496551
-1.67333808618474
-1.65940510865509
-1.58600282231058
-1.47147684163754
-1.33853689254606
-1.20886942350411
-1.0983085919388
-1.01385168852901
-0.953193741628822
-0.906670041372236
-0.860812022001666
-0.802357806277143
-0.721602299914317
-0.61435135816526
-0.482265451697888
-0.331835583500143
-0.172514487829734
-0.0146124289029631
0.132514461878493
0.261655724076517
0.368229329769163
0.450158473218631
0.507349749298517
0.541010106888028
0.553015101051243
0.545468981395631
0.520499475626075
0.480248053298606
0.426974721113
0.363185103016416
0.291693022825844
0.21555966024272
0.137901888201335
0.0616135076869857
-0.0109308032203365
-0.0781154287676266
-0.139201509497805
-0.194279665559208
-0.244060527644839
-0.289553803790735
-0.331709994758491
-0.371097633017963
-0.407680115360786
-0.440740199960664
-0.468965866150026
-0.490667731862021
-0.504070661754992
-0.507615983189883
-0.500210163930797
-0.481358777225894
-0.451147697825882
-0.410077367825596
-0.358795901095487
-0.297797479740841
-0.227163784601467
-0.146432320655791
-0.0546582142520056
0.0493137920559656
0.16641044716656
0.296812544947383
0.439476823793461
0.591830898144457
0.749756521506212
0.907909090663613
1.06033036948677
1.20124033801974
1.3258593840263
1.43110636346411
1.51604149537369
1.58197847951882
1.63225647672229
1.67170835838134
1.70588598447909
1.74013189263664
1.77862620437463
1.82356294650213
1.87460256506186
1.92871382501182
1.98046536088833
2.02274925496506
2.04782584631587
2.04850752452644
2.01927722112594
1.9571547602344
1.8621603772734
1.73728145213934
1.58793435847768
1.42101202645313
1.2436894146913
1.06221067846993
0.880902222068859
0.701631349186404
0.523845718205514
0.345199501735148
0.16263843898336
-0.0262918375177825
-0.222217803333051
-0.423101369306621
-0.624029152957103
-0.817712489465873
-0.995609296632667
-1.14943064633628
-1.2726966366907
-1.3619767557292
-1.41751421625668
-1.44309336450303
-1.44521586180326
-1.43182742027422
-1.41092327482908
-1.38934344611983
-1.37197355825098
-1.36143687102163
-1.35824032345973
-1.36125091493397
-1.36834077659365
-1.37704641837058
-1.38512601401775
-1.39095014913376
-1.39370966203536
-1.3934580215037
-1.39102131873581
-1.38780934318951
-1.38555377288815
-1.38599293692101
-1.39052367133462
-1.39985185192672
-1.41369109342387
-1.4305758414817
-1.44786017201509
-1.46195768391181
-1.46883658173652
-1.46472132327309
-1.44688176909957
-1.41433479968137
-1.36826742292325
-1.31203417172201
-1.25068632663024
-1.19012787010475
-1.13610780752379
-1.0932967313164
-1.06464567162411
-1.05112735008571
-1.05186335224055
-1.06456190751601
-1.08612781473364
-1.11327555864705
-1.14300263876527
-1.17284933650324
-1.20093927181048
-1.22583894850027
-1.24630475931541
-1.26100679025632
-1.26831381899022
-1.26619224024801
-1.25224057700202
-1.22386633504772
-1.17859655839338
-1.11448523018042
-1.03055652403256
-0.927216001804715
-0.806556047992814
-0.672466405989444
-0.530461578126669
-0.387181108127777
-0.249591512761561
-0.123988184446195
-0.0149578034189064
0.0754784400075352
0.148291974391697
0.207240871881595
0.257950069795431
0.30636518650319
0.356856272536496
0.410432618247015
0.463638455074533
0.508630943557645
0.53465569109612
0.530703228563085
0.488698689222132
0.406304275260472
0.288429304477171
0.146892540533401
-0.00173527997702676
-0.139498532674
-0.250676778239924
-0.324692879864788
-0.357627200026969
-0.352101462155143
-0.315749263186276
-0.258810203479192
-0.191499745929171
-0.121744887495669
-0.0537125239332727
0.0126534774501066
0.0810983317873463
0.157735633744175
0.249269800379644
0.361129173077821
0.495865060919586
0.652122067734132
0.824382536542143
1.00353989403829
1.17820201939558
1.33649373540699
1.46801771459981
1.56556435188843
1.62618682604942
1.65140862599175
1.64656390976935
1.61949298284945
1.57894801057405
1.53308131141775
1.48830875003525
1.44870556120382
1.41594735465225
1.38969228969936
1.3682326949469
1.34922974437707
1.33037346362003
1.30986483040029
1.28667803473154
1.2606135333953
1.232187158571
1.20241496502671
1.17255123449691
1.14382503646367
1.11720655937083
1.09322384591606
1.07184599180154
1.05244899276876
1.0338810656286
1.0146400711077
0.993162239969803
0.968197345313791
0.939213736720724
0.906744871829731
0.872568258849035
0.839609996636482
0.811502371987154
0.791790367950304
0.782877676827191
0.784905263641196
0.794838180477523
0.806068125031338
0.808793846547796
0.791307263672253
0.742102115143825
0.652474699614487
0.519069025454663
0.345710194667812
0.143936783106932
-0.0680930353737445
-0.268238828608518
-0.434051224898135
-0.546682861866607
-0.594176397832238
-0.573434706587203
-0.490503649739755
-0.35919141048124
-0.198410115386049
-0.0288596926564568
0.130267070406732
0.263969645636857
0.363105106788468
0.424847856525158
0.452002479945511
0.45145359724181
0.432185339057778
0.403335052167753
0.372662366709162
0.345653862256771
0.325298901423242
0.312413435262003
0.306289503492662
0.305421969246034
0.308104511955754
0.312773460568355
0.318082689751997
0.32278707451869
0.325572671846205
0.324984777991491
0.319567477476239
0.308249103963458
0.290906344518276
0.268941936307193
0.245645919515391
0.226103544726514
0.216479296891083
0.222644991111188
0.248309451023334
0.293007012481797
0.350456706114592
0.407854956312042
0.446566360058967
0.444414922537215
0.379383639636694
0.23408776696699
2.46379297737104e-05
-0.319535986322301
-0.708962584816845
-1.14237247443611
-1.58807716511382
-2.01426925452856
-2.39445678724681
-2.71125199544879
-2.95767957096683
-3.13595158967264
-3.25437623975689
-3.32351269199166
-3.35275552969705
-3.3482395360821
-3.31242054523332
-3.24511667778241
-3.14538748466045
-3.01348687818169
-2.8522351414413
-2.66743693086878
-2.46731977424248
-2.26126406949992
-2.05825255364909
-1.86546924553446
-1.68737146017668
-1.52539768195897
-1.37829735210283
-1.24291832046907
-1.11520962140798
-0.991204505618556
-0.867809968255145
-0.743305377550121
-0.61752697767972
-0.491777085430276
-0.368528567896376
-0.250990070974917
-0.142578126713418
-0.0463371378152569
0.0356395153831797
0.102718130039084
0.156079386366792
0.19882224545645
0.235724891073288
0.272617571469797
0.315413520986122
0.368953342475226
0.435911715749948
0.516061253014148
0.606150152200149
0.700504148105759
0.792239764048492
0.874767742352518
0.943171939590861
0.99510762262672
1.03103434230025
1.05380296694834
1.06778159024502
1.07779036085643
1.08811491838531
1.10180170723928
1.12033778174488
1.1437143642849
1.17079101337797
1.1998288990945
1.22905015041324
1.25709977630832
1.28332634376558
1.30784553372427
1.33139722212213
1.35504546206374
1.37979805994335
1.40623651843592
1.43424706064432
1.46292871473103
1.49072490582275
1.51578186883576
1.53648439758502
1.55206473917218
1.5631353620895
1.57197465480769
1.58240938355961
1.599197119926
1.62691474694191
1.66849190991683
1.72366399868216
1.78772100024949
1.85095697083947
1.89914940375614
1.91520946978943
1.88186630717665
1.78494098549195
1.6165176006918
1.37722680359908
1.07698862723904
0.733915278913255
0.371559472469302
0.015151375054771
-0.312265777332615
-0.592910306296863
-0.815943816131699
-0.977591902346726
-1.07995325597989
-1.12902121168373
-1.1325297276858
-1.09815699533847
-1.032422878039
-0.940366166943843
-0.825860322374619
-0.692283317638419
-0.543218965840202
-0.382919776010427
-0.216380195366972
-0.0490225157128283
0.113862010941494
0.267698651447705
0.409034354161436
0.53563502972855
0.646257587766742
0.740188213880309
0.816717441861201
0.874743312970047
0.912644230014832
0.928464054266815
0.920345244653224
0.887066047317898
0.828503118993117
0.745860347200801
0.641575865483131
0.518920964198549
0.381403007150188
0.232150965988002
0.0734788778972004
-0.093220751577373
-0.267199674508289
-0.447761929972618
-0.633532086210853
-0.821815391373639
-1.00827453691878
-1.1870723701652
-1.35149859536801
-1.49495227290412
-1.61204508393023
-1.69955617859991
-1.75700764449178
-1.78672279499311
-1.79335605664913
-1.78301362401715
-1.76218079182348
-1.73670547065368
-1.71105183502792
-1.68795114562852
-1.66846873208785
-1.65240698129436
-1.63889589875193
-1.6269962453393
-1.61615569319667
-1.60640807858836
-1.59827674761761
-1.592419963331
-1.58912405720471
-1.5877948239672
-1.58660916825969
-1.58246174934604
-1.5712767731483
-1.54866325351666
-1.5107923497235
-1.45529449828236
-1.38194064526259
-1.292906929198
-1.19252632511765
-1.08657480638428
-0.981270052164203
-0.882227255426066
-0.793603111605059
-0.717587364411837
-0.654304547629835
-0.602091083636964
-0.558035372737304
-0.518632504772852
-0.480417010689439
-0.440477355376682
-0.39679916358149
-0.348421103922193
-0.295418393896002
-0.238748320129572
-0.179994793994885
-0.121044920636588
-0.0637352946017374
-0.00951752175312388
0.0408047043639956
0.0872273563674919
0.130566632338803
0.172347740592676
0.214581496780551
0.259465494654079
0.309050828975672
0.364907500303922
0.427817873555032
0.497538270546665
0.572684284839873
0.650800077486965
0.728660488916007
0.80282571685102
0.87041389466905
0.929976251967346
0.98227577747746
1.03072121052604
1.08122138695711
1.14131089186308
1.21855769809761
1.31848166241991
1.44243775950753
1.58606464578829
1.7388852322183
1.88543096956131
2.00786705651282
2.08961504144616
2.11906387474543
2.09231243693243
2.01410294415012
1.89663733951591
1.75662196800639
1.6114107451138
1.47532816787017
1.35710250951523
1.258921330565
1.17711631160507
1.10406677262928
1.03068106322201
0.948788997431492
0.852919894642101
0.741183919409305
0.615238414780931
0.479532662413855
0.340143993956454
0.203540820207244
0.0755490486274957
-0.0393142203916459
-0.138100165825027
-0.219338013806101
-0.282706983053077
-0.328603448220519
-0.357731136756733
-0.370810029339711
-0.368448593657208
-0.351174499721068
-0.319584646985366
-0.274553853550711
-0.217430511292689
-0.150154017494972
-0.0752545011430617
0.00427389552521362
0.0852124424592403
0.164438153909989
0.239271345132296
0.307778284188389
0.368957586193575
0.422762306707525
0.469945457556639
0.511756447991194
0.549554368274257
0.58442842861823
0.61691142177897
0.646840213592001
0.673376470689391
0.695166360092516
0.710592055311917
0.718051798138978
0.716206021645108
0.704145510171885
0.6814620707895
0.648222455760224
0.60486389967758
0.552046774034044
0.490508444955655
0.420955044626296
0.344010668227541
0.260227516342283
0.170147875813037
0.0743978839147049
-0.0262116866062843
-0.130597371907504
-0.237340566565089
-0.344663763655723
-0.450461138871496
-0.552394026682199
-0.648050864360061
-0.735162570806153
-0.81185578784718
-0.876910077592521
-0.929966429809886
-0.97162892330625
-1.00341412186234
-1.02752643382625
-1.04647033958537
-1.06255601060866
-1.07740277870672
-1.09156813131596
-1.10441095089643
-1.11424329567915
-1.11875165609519
-1.11559144511724
-1.10300022753341
-1.08026508805742
-1.04792702116189
-1.00768578486001
-0.962047487509171
-0.913816213358825
-0.865563602773474
-0.819206537080936
-0.775779853276224
-0.735427902174773
-0.697584273332171
-0.661274665357253
-0.625460099517797
-0.589337822378974
-0.552540282199384
-0.515208936698818
-0.477949174664837
-0.441688574778054
-0.407472817547192
-0.376245266945535
-0.348657308422428
-0.324942911888405
-0.304873961433818
-0.287801190901839
-0.272773349070146
-0.258710387659641
-0.24459454068597
-0.229644076672204
-0.213440918570917
-0.1959868280865
-0.177669821468768
-0.159141635755326
-0.141131156935646
-0.124233778492056
-0.108721363184364
-0.0944179435912886
-0.0806787221802192
-0.0664862389838142
-0.0506446487240153
-0.0320287866165808
-0.00983565426477304
0.0162150581187049
0.0457794956991143
0.0779161264357163
0.111237364986207
0.144154288885192
0.175166112677684
0.203139400249454
0.227522395270286
0.248453277721986
0.266746889901132
0.283767251032943
0.301201970468029
0.320757935178946
0.343808495002103
0.371039118378561
0.402151990197777
0.435699385196253
0.469121235110622
0.499051009507143
0.521909347239662
0.534729579452138
0.536074754239666
0.526833162679757
0.510637076596285
0.493664917944452
0.483688444046136
0.488412815011032
0.513386859686478
0.559968820666347
0.623948988492998
0.695385164514625
0.759955979097236
0.801711880971354
0.806631658632558
0.766052876362856
0.678987258639957
0.55261127249707
0.400765021881928
0.240907457968881
0.0904243711842343
-0.0366970878956147
-0.132034131884143
-0.193369241756284
-0.223902210720043
-0.230479885860909
-0.221449496036647
-0.20470193859333
-0.186293356782744
-0.169806845441221
-0.156411832217588
-0.145432514508153
-0.135166125774218
-0.123701202096192
-0.109554889456298
-0.0920371702657442
-0.0713291942291192
-0.048325303233895
-0.024330684619456
-0.000719132054410515
0.0213628976955482
0.0411923005487184
0.0585427367251482
0.0736414865706028
0.0870430796870201
0.0994674286925287
0.111642842498023
0.124175959481499
0.137458386354598
0.15161484959611
0.166491496902106
0.181677289097406
0.196553765036396
0.210373789934269
0.222365359116131
0.231843372450306
0.238305222329045
0.241490503958577
0.241392524722228
0.238215806430282
0.232286017667903
0.223935955562576
0.213399937349726
0.200742926932545
0.185839668009996
0.168410553251483
0.14810881908111
0.124635019099453
0.0978427047262604
0.0678056630102401
0.0348345633377319
-0.000554558751892458
-0.0377072945505259
-0.0759107997286669
-0.114460980173174
-0.15270218134311
-0.190041381227949
-0.225946834089148
-0.259940562276377
-0.291595126479691
-0.320546327964303
-0.346524726734862
-0.369392786712183
-0.389166296123699
-0.406003549185765
-0.420154516145758
-0.4318714253081
-0.441298244676978
-0.448375763415352
-0.45280318580072
-0.454078232310563
-0.451609990333147
-0.444878186214978
-0.433599774544951
-0.41785699733775
-0.3981487863998
-0.37535304305172
-0.350615431304351
-0.325193700301541
-0.300287659153658
-0.27688500349685
-0.25565082764284
-0.236876508368287
-0.220487826047531
-0.206105166906057
-0.193147733300234
-0.180966223910327
-0.168976041163152
-0.156760908037555
-0.144128677560949
-0.131114754328908
-0.117937164700588
-0.104916896181981
-0.092387809310815
-0.0806206899724903
-0.0697732108439306
-0.0598661900850232
-0.050786084888013
-0.0423145922560756
-0.0341789226887099
-0.0261083937896931
-0.0178844459368643
-0.00937640848456277
-0.00055553322969865
0.0085191176314425
0.0177386196713432
0.0269896549665245
0.0361926157744487
0.0453292060496535
0.0544627737275849
0.0637520376517326
0.0734566191599829
0.083932450539842
0.0956099287708048
0.108941663852807
0.124313644209803
0.141933438611354
0.161724025284142
0.18325213253329
0.205714118131799
0.227996722713569
0.248816895376573
0.266921494391923
0.28130839497103
0.291427372440948
0.297324332623716
0.299694695701132
0.299816241268696
0.299349053299963
0.300016402509465
0.303204981025989
0.309546805699921
0.318572254032657
0.328541668942253
0.33655158705222
0.338967477850454
0.332169904642444
0.313521787971286
0.282374363293791
0.240851872404892
0.194131984437302
0.149999243829727
0.117591191136845
0.105462026010871
0.119323554787502
0.160023117870023
0.222391379321235
0.295467573325392
0.364283131102679
0.41293156972314
0.428207914372314
0.402830825484082
0.337304293640912
0.239859707416689
0.124511618201697
0.00782929292528942
-0.0946384400148368
-0.171339926303664
-0.216436881615726
-0.230037415414684
-0.217148205776672
-0.185825341885992
-0.145089393795453
-0.10309995379329
-0.0659185914857144
-0.036982979913468
-0.0172248517003545
-0.00563981646663151
-7.40694250240977e-05
0.00198887158081477
0.00280502173282789
0.00399819110579871
0.00644415221823648
0.010351944821014
0.0154582424928975
0.0212545317806205
0.0271829338426662
0.0327614369775697
0.0376324529512422
0.0415557997310815
0.0443747524444831
0.0459783541483589
0.0462790067783157
0.0452195005155522
0.0428081798137801
0.039161597877735
0.0345284296965457
0.0292783561368239
0.0238510497801167
0.0186687111847139
0.0140288853481202
0.0100100793210075
0.0064245964566493
0.00283599523255235
-0.00136236940473884
-0.00682474815262748
-0.0141139755522101
-0.0235829288859631
-0.0353091673351026
-0.0490931874105877
-0.0645074478838429
-0.0809755594888991
-0.0978634645525673
-0.114565238655203
-0.130568702293852
-0.145497344045013
-0.159135781815211
-0.171442919654042
-0.18254668451651
-0.192713462539426
-0.202294071548366
-0.21165317364161
-0.221089393758087
-0.230759069581569
-0.240624779857641
-0.250445893459062
-0.259811797638312
-0.268205765323267
-0.275085667923663
-0.279966663659339
-0.282486829768665
-0.282441128492251
-0.279785388768531
-0.274623823861433
-0.26718982758791
-0.257821492953821
-0.246932866010955
-0.234983200350412
-0.222441308898384
-0.209739779093144
-0.197224461022599
-0.185117267435991
-0.173507981441819
-0.162377325711907
-0.151644775771847
-0.141231430509005
-0.131121194413708
-0.121397046217224
-0.112237184829425
-0.103875037315566
-0.0965386618130747
-0.0903839359180541
-0.0854354066348622
-0.081553175799184
-0.0784409225819838
-0.07569444691424
-0.0728762279737351
-0.069598940704283
-0.0656007972533363
-0.0607919525773683
-0.0552551709790119
-0.04920240934344
-0.0429071939850085
-0.0366351131756356
-0.0305878941142155
-0.0248732076645861
-0.0195079721281008
-0.0144479988462225
-0.00962107000944967
-0.00494163145791981
-0.000300827710038797
0.00446136187215144
0.0095885979210159
0.0154240024339307
0.0223832249317625
0.0308719210040292
0.0411635044047754
0.0532747052905192
0.0668790221473867
0.0812904383313248
0.0955379060470699
0.108528180524672
0.119262883328973
0.127055997594245
0.131702996493385
0.133569203446325
0.133576335646904
0.133076090704642
0.133617158141928
0.136631137419556
0.143075205544193
0.153083278511851
0.165702080790583
0.178809452648434
0.189303591755233
0.193607315058301
0.18846268188499
0.171905963109244
0.144218332766919
0.10857490498158
0.0711111829153113
0.0402166481939218
0.0250372087006156
0.0333898608556375
0.06952127802823
0.132306910136505
0.21450022055338
0.303449197749402
0.383324172378199
0.438445093492948
0.456898150258748
0.433443823975934
0.370853691194432
0.279265448205728
0.17375628281293
0.0708646937279437
-0.0149513065628773
-0.0740081272100475
-0.102676176336697
-0.103143529859404
-0.0819760609035667
-0.0480266719206146
-0.0102854559659361
0.0238500871010909
0.049601799266901
0.0650723424623016
0.0708679608109445
0.0693185451687202
0.0635516867999357
0.0566389507203475
0.0509671223603776
0.0479080062921973
0.0477798663569083
0.0500350189683571
0.0535841139556451
0.057166305153968
0.0596817033769095
0.0604219182096866
0.0591702070874701
0.056179309281381
0.0520547412835969
0.0475783157904886
0.0435138759933738
0.0404407999607272
0.0386488897987528
0.0381065394274256
0.0384990612020111
0.0393263262637714
0.0400366943936594
0.0401605009571898
0.0394076349078283
0.0377114866189163
0.0352184939257344
0.0322304591777274
0.0291150650241079
0.0262109971457459
0.0237543343194245
0.0218379165420566
0.0204015419616677
0.019249763192561
0.0180953676534232
0.0166194478104217
0.0145320919749896
0.011621869303036
0.00778922369000818
0.00305741066960008
-0.00244717725884385
-0.0085426870320866
-0.0150494283720202
-0.0218366757476613
-0.0288467505167269
-0.0360907739088737
-0.0436138108148715
-0.0514380610032687
-0.0595069534468272
-0.0676534577533163
-0.0756016076409249
-0.0829984008277585
-0.0894705216118159
-0.0946953446849063
-0.0984655754030761
-0.100726573809918
-0.101580766758264
-0.101268062534293
-0.100131766881658
-0.0985753477987409
-0.097017311568768
-0.0958521057764781
-0.0954165292754898
-0.0959547485970799
-0.0975827464924209
-0.100264590232943
-0.103811539619334
-0.10790489215522
-0.112139650722566
-0.116087030617911
-0.11936736904956
-0.121714965516537
-0.123017922141653
-0.123327878200839
-0.122840543107902
-0.12184618068258
-0.120654286490297
-0.119510769763638
-0.118532208763453
-0.117672937179761
-0.116730310727648
-0.11539000301711
-0.11330641326417
-0.110197930642479
-0.105927738490228
-0.100549567295024
-0.0943126143427567
-0.0876261184305057
-0.0809873944094885
-0.0748877034268559
-0.069719893316713
-0.0657073685803821
-0.06286282113411
-0.0609828474631085
-0.0596875481714453
-0.0585070722433867
-0.0570009962057878
-0.0548865144630622
-0.0521498095587594
-0.0491113573548786
-0.0464136246877765
-0.044915051598625
-0.0455065756609922
-0.0488929534908809
-0.055386686835922
-0.0647572583870042
-0.0761719339326513
-0.0882500629421994
-0.0992286067048524
-0.1072180095949
-0.1105238567352
-0.10800634676941
-0.0994308613312798
-0.0857377458479848
-0.0691464098573516
-0.053011965449254
-0.0413716047077356
-0.038167462258468
-0.0462245711338051
-0.0661748224211092
-0.0956047649661079
-0.128732371661738
-0.156869421237374
-0.169787000133944
-0.15786931977191
-0.114660823800552
-0.0391778325975028
0.0627313977404974
0.178569091838556
0.291149818342029
0.382055749937371
0.435767621428667
0.443334654419724
0.404505972133884
0.327690459350037
0.227782644412563
0.122540590476992
0.0285924010925698
-0.0418468666323387
-0.082808110775895
-0.0947231498620779
-0.0831496272915758
-0.0566220211493521
-0.0242896207360241
0.00607672623896072
0.0293374575324109
0.0433838802376142
0.0487935786183905
0.0479894237539596
0.044202963363272
0.040521114386702
0.039211069337789
0.0414031076804262
0.0471094141068716
0.0554939308177218
0.0652774488491546
0.07515460891486
0.0841202331459532
0.0916490052997697
0.0977213480820518
0.102719470370779
0.107235775045738
0.111851159051246
0.116945449776861
0.122585955605014
0.128512736001513
0.134217246873081
0.139093234498329
0.142617117033949
0.144500036370199
0.144763669638443
0.143722748357981
0.141886564391966
0.139809766811389
0.137936062416787
0.136484650700163
0.135414823004773
0.134471634600363
0.133288009897524
0.131509483495209
0.12890759216326
0.125449077056273
0.121299268392964
0.116762611589344
0.112184537065841
0.107843072704337
0.103854717186163
0.100119002680723
0.0963222276547451
0.0920022287031734
0.086652978303345
0.0798380415828907
0.0712845376886232
0.0609329041236458
0.04892552302247
0.0355390359899815
0.0210916882719226
0.00586637796870115
-0.0099218105559154
-0.0261029228221269
-0.0424813467217903
-0.0587466427174517
-0.0744155618069845
-0.0888495227745685
-0.10135688093459
-0.111349432643899
-0.118501158257567
-0.122854695610387
-0.12483229032165
-0.12513707060728
-0.124573140718966
-0.123844680424146
-0.123395630082223
-0.123331358825003
-0.123439981189227
-0.123305269064738
-0.122472716839267
-0.120610467093114
-0.117615322996254
-0.113642753208641
-0.109064714446233
-0.104373176195349
-0.100059196936726
-0.096504840869528
-0.0939155455703046
-0.0922982569275359
-0.0914768211121224
-0.0911369957847334
-0.0908936951757942
-0.090365427917082
-0.0892378625592405
-0.0873067984597834
-0.0844981031227477
-0.0808606154842067
-0.0765293905355707
-0.0716691734242201
-0.0664184442865437
-0.0608501872080233
-0.0549564459643824
-0.0486628806994441
-0.0418791759927576
-0.0345783092848721
-0.0268807005218655
-0.0191156029221192
-0.0118399353598549
-0.00580025197717711
-0.00182846121181762
-0.000678653313353803
-0.00283598573864823
-0.00833973497573119
-0.0166584304165352
-0.0266510509352982
-0.0366481667928026
-0.0446747708673174
-0.0488055776721049
-0.047607852752145
-0.0405970105706716
-0.0286018633382309
-0.0139140457997201
-0.000105317537365027
0.0085451295496945
0.00797742277523507
-0.00450688832827633
-0.0291221998021223
-0.062801622428196
-0.09903887335645
-0.128592521695787
-0.141090189785416
-0.127327169736508
-0.0818028689652711
-0.00484576571621618
0.0963645161067499
0.208382758931443
0.313787315840992
0.394751649017629
0.437025609709773
0.433238627747142
0.384569554523719
0.300302234897244
0.195442093318864
0.0871479844398168
-0.00898344077377726
-0.0818228481414493
-0.126201280533008
-0.142862518312116
-0.137169220453025
-0.117109068048908
-0.0911904226519903
-0.0667013506827866
-0.0486147316728165
-0.039218667292746
-0.0383749820203425
-0.0441940892573901
-0.0538816007842331
-0.0645443362637543
-0.0738049329680419
-0.0801452132571228
-0.082974562733102
-0.0824854563393781
-0.0793902237843298
-0.0746287208527054
-0.0691161323906374
-0.0635761733224778
-0.0584736331513885
-0.0540262502282717
-0.0502590322210764
-0.0470710724419209
-0.0442979950599067
-0.0417583275626278
-0.0392769732016117
-0.0366908128697252
-0.0338489250111102
-0.0306134397894768
-0.0268587872601086
-0.0224708476441604
-0.0173545316208817
-0.011453729475931
-0.00477720358354997
0.00257737072764188
0.0104049972315211
0.0183882464002807
0.0261198636310404
0.0331603621757366
0.039118784183288
0.0437334227004371
0.0469319119784756
0.0488547199982912
0.0498291637797473
0.0502933540163725
0.0506901731342147
0.0513618863765765
0.0524684601522862
0.0539422713208408
0.0554896377728142
0.0566450065480403
0.0568678759932311
0.0556579940036202
0.0526642853728678
0.0477693812589864
0.0411324647865965
0.0331753999708752
0.024512362662767
0.0158428387788146
0.00783500998099085
0.0010228393915551
-0.00426194960893783
-0.00790517257372072
-0.00997132447379785
-0.010631830900544
-0.0100901546196294
-0.00852464225555639
-0.00606024571461758
-0.00277577200719907
0.00125659000444629
0.00591866123263669
0.0110049679907729
0.0162056006052307
0.0211144475617704
0.0252636280611461
0.0281844969089643
0.0294848327921328
0.028921845967613
0.0264538613154801
0.0222618124775222
0.016733331708593
0.0104045726217109
0.00386888586500558
-0.00232292620230977
-0.00774600448238927
-0.0121553760809935
-0.0155044831075193
-0.0179248878239956
-0.0196733591079524
-0.0210653014672476
-0.0224133049821582
-0.0239773623852142
-0.0259268996307762
-0.0283185570049291
-0.0310931652042653
-0.0340863140817829
-0.0370440354334464
-0.0396443254869632
-0.0415314847559396
-0.0423641130772598
-0.0418711458548311
-0.039913171318816
-0.0365470872122998
-0.0320806768526877
-0.0270923556241974
-0.0223959405173745
-0.0189447934357243
-0.017680312988024
-0.0193397275982064
-0.024256105886164
-0.0321991802108944
-0.0423019011913357
-0.0530993964396684
-0.0626926310145729
-0.0690388558781611
-0.070348853032196
-0.0655360121652372
-0.0546322979184752
-0.0390704244171941
-0.0217255283057472
-0.00662089519658587
0.00174650749609588
-0.00059036300569537
-0.015897297960846
-0.0436525548770439
-0.079852242646458
-0.11701002578575
-0.145059377221237
-0.153168312727733
-0.132210878121945
-0.0773791042147494
0.00975666848473693
0.12044125457953
0.239660402993185
0.348823530686273
0.429668624167221
0.468399456962701
0.458905029250664
0.404129812480298
0.315207461987317
0.208656630457215
0.102506945255833
0.0124614541348922
-0.0509445231535204
-0.0836412229165445
-0.0877227863864283
-0.069900451531842
-0.0393010146655249
-0.0052319546643996
0.0246027887242637
0.0451712502646115
0.054417319413194
0.0529215047609625
0.0431468367898291
0.0285286581337385
0.0126251470339797
-0.00153395058440208
-0.0118395000523079
-0.0172358774780669
-0.0176428002143472
-0.0137429430219318
-0.0067101489768116
0.00206843222961932
0.0112399236704453
0.0196746277728
0.026580195061746
0.0315426365237852
0.0345047670683458
0.0356921188591792
0.0355016706518253
0.0343820603629853
0.0327371001000339
0.0308695314168326
0.0289651652063093
0.0271115083122822
0.0253409277613552
0.02367879926661
0.0221738701710937
0.020901110105282
0.0199437093530607
0.0193649114429989
0.0191780003565439
0.0193260351987374
0.0196849458850579
0.020092087103017
0.0203861554516395
0.0204417751250752
0.0201906531794948
0.0196245224873844
0.0187732599372165
0.0176591373845504
0.0162438540817676
0.014390628257908
0.011854679550571
0.00830676863259161
0.00339163194077057
-0.00318584677203608
-0.0115709992423182
-0.0216974671642239
-0.0332713566488731
-0.0458024291571313
-0.0586755884000079
-0.0712500873278559
-0.0829615788541566
-0.0933957074794861
-0.102314522292779
-0.109638066494125
-0.115395269855678
-0.119662244111133
-0.122511601487975
-0.123996114398206
-0.124172007734523
-0.12314254258427
-0.121094474363736
-0.11830997946354
-0.115146970273137
-0.111986406818292
-0.109156988283814
-0.106863199728594
-0.105143861067718
-0.103871738761001
-0.102789670375857
-0.101575732924596
-0.0999273073455104
-0.0976437380801309
-0.0946828036113622
-0.0911772068954061
-0.087411427514277
-0.0837639668105264
-0.0806234096629
-0.0782982632950572
-0.0769485354391083
-0.076557187590807
-0.0769413585432577
-0.0777948018588515
-0.0787521249634233
-0.0794592451220175
-0.0796280725958735
-0.0790622416768442
-0.077659892083846
-0.0754079665362496
-0.0723759304089175
-0.0687107573868478
-0.0646347171715829
-0.060441784467966
-0.0564774078071144
-0.0530876066709804
-0.0505421945368318
-0.0489543501910435
-0.0482206360704293
-0.0480009284393509
-0.047755469188376
-0.0468464890615269
-0.0446876702568936
-0.040902350067911
-0.0354485966200056
-0.0286798567939148
-0.021319661604016
-0.0143420252795191
-0.0087749138635813
-0.0054704166895475
-0.00489169356636356
-0.00695632348751917
-0.0109674799503542
-0.0156606317253981
-0.0193795564416356
-0.0203698322418128
-0.017155043038007
-0.00894338697657882
0.00401138182690481
0.0201965070617337
0.0368777475896613
0.050454043954539
0.0571322659582132
0.0538511721473259
0.0393009182875933
0.0148034506555083
-0.0152238546677088
-0.0434687647265599
-0.0607271136942373
-0.0576701769407545
-0.0271125023068433
0.033716489106914
0.121542908037787
0.226672816741937
0.334225224246333
0.42689370382296
0.488663662770952
0.508527011499572
0.483130678467573
0.41756221816705
0.32404365552184
0.218953298656402
0.119073517378758
0.0381131186213329
-0.015640070624811
-0.0401113730115341
-0.0387412025662165
-0.0187370146041712
0.0111163316587517
0.0425069907279533
0.0690845934789683
0.0871861447961006
0.0958235559490893
0.0961235086297459
0.0904831023711746
0.0816952424207063
0.072240388658078
0.063858128661685
0.0574171542909709
0.053022667694292
0.0502626693750336
0.0484964692925837
0.0471074087615935
0.0456674223226767
0.0439974024982954
0.0421444310005213
0.0403128979668105
0.0387788514752493
0.0378063290520329
0.037582160527655
0.0381812710404155
0.0395620983829676
0.0415837073235905
0.0440390841996238
0.0467002166676682
0.0493623292283764
0.0518710229014226
0.0541280698864921
0.0560855929109241
0.0577375931675284
0.059109176261121
0.0602427525622354
0.0611838582931289
0.061965997315237
0.0625899875423497
0.0630010870234158
0.0630785291049566
0.0626480982155707
0.0615115892021527
0.05947834754054
0.0563893725231842
0.052129512500591
0.04662310931402
0.0398144552498923
0.0316477514387798
0.0220650826587044
0.0110283742008744
-0.00144227882605071
-0.0152247128790894
-0.0300575365957876
-0.0455281153713786
-0.0611021951862953
-0.0761931374789545
-0.0902491383869868
-0.102833981114241
-0.113684902301367
-0.122735681797388
-0.130097542021932
-0.136004669055243
-0.140746139159272
-0.144605303799626
-0.147815769936101
-0.150537636331482
-0.152858789890927
-0.154819452212965
-0.156445069530527
-0.157770351693906
-0.15884842036589
-0.159746930694962
-0.160531528207079
-0.161239067571226
-0.161852776961657
-0.162293564008424
-0.162429023230836
-0.162090884138956
-0.161095282275123
-0.159266813327524
-0.156463879592707
-0.15259786445136
-0.147643706121535
-0.14164582875254
-0.134718824798191
-0.127035476092835
-0.118800381904442
-0.110218759171203
-0.101469994082115
-0.0926872425599445
-0.0839437402127383
-0.075252098963502
-0.0665792683945217
-0.0578680350596309
-0.0490536048682907
-0.0400740610234776
-0.0308797979397707
-0.0214432579954147
-0.0117695638707688
-0.00191532499811318
0.00797837404297304
0.0176489231311191
0.0266948254925966
0.0345977871079249
0.0407909402378469
0.0447697543760284
0.0462295220029476
0.0451930288846269
0.0420800975275755
0.0376842364821067
0.0330514057857133
0.0292807511316352
0.0272842523104069
0.0275597450945614
0.0300415238507171
0.0340773525921795
0.0385440308148172
0.0420783414148997
0.0433767338043921
0.0414997092793582
0.0361091687994794
0.027583311681985
0.0169900345963818
0.00592993221153326
-0.00372971137337398
-0.0102032048062354
-0.012174915890264
-0.0091672899057231
-0.00181611956079487
0.00802740383487627
0.0174508923449221
0.0229488956180778
0.0211930586707679
0.00999585030466453
-0.0107299313315979
-0.0382741418438814
-0.0669684390996994
-0.0887763945948178
-0.0946942766729827
-0.0767935823450799
-0.0304983401609176
0.0434856193235518
0.13821910277664
0.241040758428856
0.335669034917011
0.40553212746611
0.437514003167349
0.425084260239758
0.369894696089923
0.281360679285892
0.174362586784712
0.0657744768232804
-0.0291691775851712
-0.0997192161513067
-0.141070448846312
-0.154296844036463
-0.145039267631848
-0.121481459213183
-0.0922159376590151
-0.0644946283064323
-0.0431546914424009
-0.0302946100666751
-0.025599486408858
-0.0270949757001417
-0.0320597589134369
-0.03785413799872
-0.0425045700411732
-0.0449780493665995
-0.0451602568882969
-0.0436141304877921
-0.0412336491045663
-0.0389060745175016
-0.0372594445723552
-0.0365293255874152
-0.0365486430794976
-0.0368409638804527
-0.0367761561472464
-0.0357400223644136
-0.0332818761124048
-0.0292193975630069
-0.0236845478430496
-0.0170984304517673
-0.0100799381263355
-0.00331272113804091
0.00259905520640213
0.00725907005570869
0.0105639527768202
0.0127195996529266
0.0141810075395802
0.0155345870183452
0.0173563794065199
0.020078511531731
0.0238928975615814
0.028716841053083
0.0342281378075611
0.0399513651431967
0.0453633796673801
0.0499914670354034
0.0534862549430065
0.0556545719511932
0.0564460671049344
0.0559063826908987
0.0541226283110109
0.0511820180719268
0.047153507140335
0.0420978161411182
0.0361056876461082
0.0293489754568016
0.0221172043846082
0.0148193897130512
0.00794889316755812
0.00201962887103877
-0.00251436081289258
-0.00533626751162164
-0.00631559590267385
-0.00551502028342499
-0.00316273237235993
0.000391992536681551
0.00472807172258613
0.00940031431859329
0.0139787019507821
0.0180770752402974
0.0213793354883199
0.0236710786438396
0.0248702065555965
0.0250402984687701
0.0243770453563684
0.0231686043032676
0.0217340357681313
0.0203485102924558
0.0191761721888441
0.0182368265852215
0.0174180119736782
0.016522718233351
0.015334966283723
0.0136878985658074
0.0115181177423587
0.00888897304211673
0.00597628195526696
0.00302635199469667
0.000301151505514059
-0.00197965794865102
-0.00368990074123504
-0.00482604074691508
-0.00550410901580406
-0.00592972078807224
-0.00635419176866568
-0.00702417044086601
-0.00812913728441692
-0.00975800191320167
-0.0118789177936632
-0.0143467505306304
-0.0169328809547485
-0.0193718818550389
-0.021418822199863
-0.0229018285236879
-0.0237505936580691
-0.0239946436498315
-0.0237419853498567
-0.0231508905068753
-0.0224004150267158
-0.0216644184579145
-0.0210963193697625
-0.0208250996092069
-0.0209528173369166
-0.0215459654991019
-0.0226240370847174
-0.0241509777359501
-0.0260281635782331
-0.0280872750222926
-0.0300899106456229
-0.0317421210486004
-0.0327228001056515
-0.0327209965152893
-0.0314839884367668
-0.0288791104820776
-0.0249593880719377
-0.0200114376540763
-0.0145667665582455
-0.00936527724659231
-0.00526281863754141
-0.00308287872025808
-0.00343425817642274
-0.00653652001576134
-0.0120951609602514
-0.0192559031813307
-0.0266592078281511
-0.0326089189142025
-0.0353491759168287
-0.0334160808692019
-0.0260114147991957
-0.0133344671997222
0.00320708363246758
0.020997796321516
0.0365004429199143
0.0458489485369737
0.0456992237936918
0.0342131246386056
0.0119729380899047
-0.0174364927013551
-0.0474412699800446
-0.0692627954066486
-0.073481771982001
-0.0521768164445094
-0.00120910218099849
0.0779454499850344
0.177439055547141
0.283803402374542
0.380258032131879
0.450150574913535
0.480693886928051
0.465975937453541
0.40835982035528
0.317855909878723
0.209673938219525
0.100701741622857
0.00591284818202004
-0.0643794148495897
-0.105853260872764
-0.119992637260884
-0.112696030427144
-0.0922314742403585
-0.0671242067900903
-0.0444465565966343
-0.0287869014567647
-0.0219633162422303
-0.0233651399637038
-0.0306959447542538
-0.0408688403699463
-0.0508427814205183
-0.0582508035485938
-0.0617437435920636
-0.0610492507045952
-0.0568052621797044
-0.0502522710535381
-0.0428688843136813
-0.0360291114888458
-0.0307467132831234
-0.0275420662748358
-0.0264303101337598
-0.0270070367935
-0.0286005994803132
-0.030453384932524
-0.0318880959093096
-0.0324239637483741
-0.0318306528524672
-0.0301244553370759
-0.0275152344267785
-0.0243178161449067
-0.0208537918048595
-0.017373496995235
-0.014014629294331
-0.0107979428390219
-0.00765427749847653
-0.00447290449040389
-0.00115181099412843
0.00237129413595765
0.00611266000041326
0.010047760540424
0.0141131696445573
0.0181996781260134
0.0221362340004152
0.0256661073299461
0.0284258939523085
0.0299474538812617
0.0296965527833342
0.0271442062415146
0.0218568499645006
0.0135919465570122
0.00238192486223356
-0.0114192360295099
-0.0271489560889117
-0.0439113781195455
-0.0607004463997334
-0.0765501577707577
-0.0906860616820189
-0.102642626365586
-0.11231290276696
-0.11991884723511
-0.125916299949768
-0.130860515484109
-0.13526136647004
-0.1394616421761
-0.143569327970755
-0.147456127289219
-0.150812061781283
-0.153237149074126
-0.154351263957743
-0.153898227039121
-0.151815429054097
-0.148251773662797
-0.143539338699996
-0.138136485191282
-0.132557478767494
-0.127300679145034
-0.122788450381355
-0.119326121618247
-0.117075053757018
-0.116033051126713
-0.116027730308408
-0.116735943643197
-0.117733305678481
-0.118565079166667
-0.118825578211187
-0.118230889739701
-0.116663264228435
-0.114167834799904
-0.110902703462646
-0.107065762688625
-0.102825678319647
-0.0982747628269159
-0.0934139632555495
-0.0881740099037713
-0.0824629277487495
-0.0762169721328927
-0.0694355087535864
-0.0621949143974191
-0.0546425865729387
-0.0469686700401363
-0.0393571322993488
-0.0319314448664102
-0.0247155854286102
-0.0176218451682931
-0.0104674227022236
-0.00301956426005916
0.00493700595461652
0.0135303268890121
0.0227543523851735
0.0324576411478994
0.0423645835290839
0.0521222093159016
0.0613656439911486
0.0697887008559409
0.0772020607496431
0.0835712547090373
0.0890393285277632
0.0939378834044823
0.0987808020930921
0.104233916483848
0.111059133544295
0.12002983288437
0.131810358802977
0.146803557589276
0.16499493004003
0.185838999906321
0.208233568674622
0.23061895911961
0.251221994732165
0.268426027390783
0.281194390421847
0.289436270504421
0.294203414184448
0.297635927588679
0.302621778487604
0.312196843090463
0.32878482223902
0.35343314532895
0.385219709655462
0.420990216884512
0.455548044775891
0.482349947054308
0.494651631490956
0.486917866493436
0.456204342888935
0.403165997173197
0.332371581446921
0.251733136639404
